Timestamp,Channel_0_mV,Channel_1_mV
2025-08-10 18:48:17.488498,3.1430604457855225,196.8323211669922
2025-08-10 18:48:17.488998,12.600802421569824,199.95433044433594
2025-08-10 18:48:17.489498,287.8959655761719,226.9278106689453
2025-08-10 18:48:17.489998,297.4160461425781,225.87310791015625
2025-08-10 18:48:17.490498,217.92068481445312,223.41346740722656
2025-08-10 18:48:17.490998,12.16230297088623,222.37693786621094
2025-08-10 18:48:17.491498,25.07063102722168,223.18267822265625
2025-08-10 18:48:17.491998,46.9932975769043,224.21200561523438
2025-08-10 18:48:17.508551,54.90677261352539,225.62472534179688
2025-08-10 18:48:17.509051,71.36204528808594,226.40017700195312
2025-08-10 18:48:17.509551,100.45706176757812,226.314208984375
2025-08-10 18:48:17.510051,138.5110321044922,225.33709716796875
2025-08-10 18:48:17.510551,180.60899353027344,223.8580322265625
2025-08-10 18:48:17.511051,192.6827392578125,222.42742919921875
2025-08-10 18:48:17.511551,168.9567413330078,221.5919647216797
2025-08-10 18:48:17.512051,139.4930419921875,221.8547821044922
2025-08-10 18:48:17.528587,115.33604431152344,222.10086059570312
2025-08-10 18:48:17.529087,112.56224060058594,222.85179138183594
2025-08-10 18:48:17.529587,129.79815673828125,223.57907104492188
2025-08-10 18:48:17.530087,164.3011474609375,223.0817108154297
2025-08-10 18:48:17.530587,210.32598876953125,222.10546875
2025-08-10 18:48:17.531087,229.44024658203125,220.7720947265625
2025-08-10 18:48:17.531587,203.51943969726562,220.3226318359375
2025-08-10 18:48:17.532087,183.65599060058594,220.68035888671875
2025-08-10 18:48:17.548479,173.1536407470703,221.55389404296875
2025-08-10 18:48:17.548979,163.41058349609375,222.7987060546875
2025-08-10 18:48:17.549479,171.873046875,223.62840270996094
2025-08-10 18:48:17.549979,200.28550720214844,223.4368438720703
2025-08-10 18:48:17.550479,241.47503662109375,222.5021514892578
2025-08-10 18:48:17.550979,255.99658203125,221.0614471435547
2025-08-10 18:48:17.551479,224.88995361328125,220.21878051757812
2025-08-10 18:48:17.551979,199.25791931152344,220.74237060546875
2025-08-10 18:48:17.568397,190.88690185546875,221.71456909179688
2025-08-10 18:48:17.568897,194.0931396484375,222.6022491455078
2025-08-10 18:48:17.569397,198.6875762939453,223.99822998046875
2025-08-10 18:48:17.569897,219.6582489013672,224.5841522216797
2025-08-10 18:48:17.570397,256.7645263671875,223.84274291992188
2025-08-10 18:48:17.570897,273.38653564453125,222.7372589111328
2025-08-10 18:48:17.571397,242.61744689941406,221.6681365966797
2025-08-10 18:48:17.571897,211.63284301757812,221.69351196289062
2025-08-10 18:48:17.588503,197.21774291992188,222.44012451171875
2025-08-10 18:48:17.589003,201.8087158203125,223.63070678710938
2025-08-10 18:48:17.589503,212.36761474609375,224.68310546875
2025-08-10 18:48:17.590003,228.41323852539062,225.1241912841797
2025-08-10 18:48:17.590503,261.0560607910156,224.96495056152344
2025-08-10 18:48:17.591003,283.7835998535156,223.61570739746094
2025-08-10 18:48:17.591503,258.5903625488281,221.98143005371094
2025-08-10 18:48:17.592003,223.69561767578125,222.0056610107422
2025-08-10 18:48:17.608313,203.28317260742188,222.8976593017578
2025-08-10 18:48:17.608813,202.20596313476562,223.8614959716797
2025-08-10 18:48:17.609313,218.68460083007812,224.88157653808594
2025-08-10 18:48:17.609813,232.71946716308594,225.5601043701172
2025-08-10 18:48:17.610313,259.9188537597656,225.5410614013672
2025-08-10 18:48:17.610813,288.23870849609375,224.56106567382812
2025-08-10 18:48:17.611313,273.1240234375,223.33990478515625
2025-08-10 18:48:17.611813,236.3001708984375,222.55262756347656
2025-08-10 18:48:17.628811,210.2154998779297,222.68215942382812
2025-08-10 18:48:17.629311,202.07846069335938,223.6973419189453
2025-08-10 18:48:17.629811,214.66165161132812,224.8466796875
2025-08-10 18:48:17.630311,232.11163330078125,226.34881591796875
2025-08-10 18:48:17.630811,255.1616973876953,226.4818115234375
2025-08-10 18:48:17.631311,286.677978515625,225.6506805419922
2025-08-10 18:48:17.631811,284.7156982421875,224.24835205078125
2025-08-10 18:48:17.632311,249.18138122558594,222.9749755859375
2025-08-10 18:48:17.649345,218.2582244873047,223.2100830078125
2025-08-10 18:48:17.649845,203.78427124023438,223.6941680908203
2025-08-10 18:48:17.650345,210.5775604248047,224.58819580078125
2025-08-10 18:48:17.650845,232.9104461669922,226.06466674804688
2025-08-10 18:48:17.651345,252.47128295898438,227.0443572998047
2025-08-10 18:48:17.651845,282.4510803222656,226.56922912597656
2025-08-10 18:48:17.652345,292.84783935546875,225.000732421875
2025-08-10 18:48:17.652845,262.4710998535156,223.55799865722656
2025-08-10 18:48:17.654388,227.5223846435547,223.16912841796875
2025-08-10 18:48:17.654888,207.23428344726562,223.25653076171875
2025-08-10 18:48:17.655388,206.60653686523438,224.4332733154297
2025-08-10 18:48:17.655888,226.49595642089844,225.85752868652344
2025-08-10 18:48:17.656388,247.966552734375,226.76856994628906
2025-08-10 18:48:17.656888,275.8265686035156,227.0593719482422
2025-08-10 18:48:17.657388,296.5802917480469,225.88233947753906
2025-08-10 18:48:17.657888,275.0782470703125,224.33547973632812
2025-08-10 18:48:17.668343,238.0238800048828,223.51963806152344
2025-08-10 18:48:17.668843,212.41954040527344,223.70945739746094
2025-08-10 18:48:17.669343,204.86033630371094,224.5584716796875
2025-08-10 18:48:17.669843,219.18772888183594,225.53990173339844
2025-08-10 18:48:17.670343,242.6416778564453,226.40652465820312
2025-08-10 18:48:17.670843,267.42816162109375,226.7665557861328
2025-08-10 18:48:17.671343,294.8257141113281,225.83819580078125
2025-08-10 18:48:17.671843,285.9908142089844,224.20364379882812
2025-08-10 18:48:17.688348,249.50765991210938,222.94180297851562
2025-08-10 18:48:17.688848,219.0186767578125,222.90660095214844
2025-08-10 18:48:17.689348,205.19497680664062,223.6598358154297
2025-08-10 18:48:17.689848,212.8349609375,225.09361267089844
2025-08-10 18:48:17.690348,236.87599182128906,226.74867248535156
2025-08-10 18:48:17.690848,258.43170166015625,227.2079315185547
2025-08-10 18:48:17.691348,287.9447326660156,226.36959838867188
2025-08-10 18:48:17.691848,293.9931335449219,224.91331481933594
2025-08-10 18:48:17.708448,262.1785583496094,223.5372314453125
2025-08-10 18:48:17.708948,227.53594970703125,223.06295776367188
2025-08-10 18:48:17.709448,207.677978515625,223.0361328125
2025-08-10 18:48:17.709948,207.74172973632812,224.65194702148438
2025-08-10 18:48:17.710448,226.06466674804688,226.2559356689453
2025-08-10 18:48:17.710948,242.6526336669922,226.9029998779297
2025-08-10 18:48:17.711448,271.67755126953125,226.92262268066406
2025-08-10 18:48:17.711948,295.3164367675781,225.961669921875
2025-08-10 18:48:17.728403,274.4023132324219,224.26162719726562
2025-08-10 18:48:17.728903,237.5109405517578,223.4731903076172
2025-08-10 18:48:17.729403,212.47982788085938,223.7686004638672
2025-08-10 18:48:17.729903,205.6585693359375,224.34759521484375
2025-08-10 18:48:17.730403,220.48851013183594,225.86358642578125
2025-08-10 18:48:17.730903,243.0371856689453,227.0071563720703
2025-08-10 18:48:17.731403,268.5587158203125,226.88540649414062
2025-08-10 18:48:17.731903,295.8354187011719,225.9671630859375
2025-08-10 18:48:17.749425,285.5465393066406,224.68223571777344
2025-08-10 18:48:17.749925,248.90501403808594,223.9962158203125
2025-08-10 18:48:17.750425,218.95144653320312,224.0025634765625
2025-08-10 18:48:17.750925,205.77426147460938,224.7820587158203
2025-08-10 18:48:17.751425,214.21075439453125,225.89186096191406
2025-08-10 18:48:17.751925,239.49948120117188,226.88829040527344
2025-08-10 18:48:17.752425,262.1122131347656,227.1488037109375
2025-08-10 18:48:17.752925,290.9539489746094,226.7648162841797
2025-08-10 18:48:17.754835,293.9449768066406,225.4562530517578
2025-08-10 18:48:17.755335,261.1697082519531,223.75965881347656
2025-08-10 18:48:17.755835,226.95494079589844,223.56434631347656
2025-08-10 18:48:17.756335,207.90818786621094,224.11334228515625
2025-08-10 18:48:17.756835,208.91529846191406,225.06736755371094
2025-08-10 18:48:17.757335,230.46524047851562,226.47402954101562
2025-08-10 18:48:17.757835,254.21546936035156,226.99647521972656
2025-08-10 18:48:17.758335,282.6960144042969,227.0008087158203
2025-08-10 18:48:17.768367,298.3518981933594,225.8618621826172
2025-08-10 18:48:17.768867,273.3894348144531,224.09776306152344
2025-08-10 18:48:17.769367,236.50787353515625,223.6018524169922
2025-08-10 18:48:17.769867,212.125,223.9864044189453
2025-08-10 18:48:17.770367,206.1365966796875,224.77830505371094
2025-08-10 18:48:17.770867,222.20904541015625,226.10765075683594
2025-08-10 18:48:17.771367,247.0379180908203,226.87213134765625
2025-08-10 18:48:17.771867,273.316162109375,227.04493713378906
2025-08-10 18:48:17.788355,297.9457092285156,226.26170349121094
2025-08-10 18:48:17.788855,284.3796081542969,224.7924346923828
2025-08-10 18:48:17.789355,247.3653564453125,223.60906982421875
2025-08-10 18:48:17.789855,217.85289001464844,223.77349853515625
2025-08-10 18:48:17.790355,205.51316833496094,224.5509796142578
2025-08-10 18:48:17.790855,214.93081665039062,225.50643920898438
2025-08-10 18:48:17.791355,239.47149658203125,226.46392822265625
2025-08-10 18:48:17.791855,262.0692138671875,227.32476806640625
2025-08-10 18:48:17.808451,291.32666015625,227.01321411132812
2025-08-10 18:48:17.808951,293.208740234375,225.5220184326172
2025-08-10 18:48:17.809451,259.6779479980469,223.94659423828125
2025-08-10 18:48:17.809951,225.91262817382812,223.45327758789062
2025-08-10 18:48:17.810451,207.36727905273438,223.75186157226562
2025-08-10 18:48:17.810951,209.2133026123047,225.1106414794922
2025-08-10 18:48:17.811451,228.9927978515625,226.1803436279297
2025-08-10 18:48:17.811951,246.8264617919922,226.93820190429688
2025-08-10 18:48:17.828455,276.5122985839844,226.87905883789062
2025-08-10 18:48:17.828955,296.37603759765625,225.6492462158203
2025-08-10 18:48:17.829455,271.8520812988281,224.06834411621094
2025-08-10 18:48:17.829955,235.2313232421875,223.75186157226562
2025-08-10 18:48:17.830455,211.47763061523438,223.82427978515625
2025-08-10 18:48:17.830955,206.32382202148438,224.68252563476562
2025-08-10 18:48:17.831455,222.762939453125,226.04043579101562
2025-08-10 18:48:17.831955,245.76165771484375,227.04840087890625
2025-08-10 18:48:17.848459,272.18817138671875,227.52037048339844
2025-08-10 18:48:17.848959,297.5596923828125,226.458740234375
2025-08-10 18:48:17.849459,283.3670349121094,224.87350463867188
2025-08-10 18:48:17.849959,246.2186279296875,223.68032836914062
2025-08-10 18:48:17.850459,217.39707946777344,223.3704833984375
2025-08-10 18:48:17.850959,205.67616271972656,224.07583618164062
2025-08-10 18:48:17.851459,215.96070861816406,225.43951416015625
2025-08-10 18:48:17.851959,241.64321899414062,226.78097534179688
2025-08-10 18:48:17.854835,264.76513671875,227.0789794921875
2025-08-10 18:48:17.855335,293.1285400390625,226.59951782226562
2025-08-10 18:48:17.855835,292.39117431640625,225.35008239746094
2025-08-10 18:48:17.856335,258.2865905761719,223.87014770507812
2025-08-10 18:48:17.856835,224.98544311523438,223.31625366210938
2025-08-10 18:48:17.857335,207.35659790039062,223.8865966796875
2025-08-10 18:48:17.857835,210.2183837890625,225.17930603027344
2025-08-10 18:48:17.858335,232.92083740234375,226.5654754638672
2025-08-10 18:48:17.868354,256.4578857421875,227.34121704101562
2025-08-10 18:48:17.868854,285.0999755859375,227.11331176757812
2025-08-10 18:48:17.869354,297.7016296386719,225.38037109375
2025-08-10 18:48:17.869854,270.4598388671875,224.14622497558594
2025-08-10 18:48:17.870354,234.10189819335938,223.8813934326172
2025-08-10 18:48:17.870854,211.03768920898438,224.28990173339844
2025-08-10 18:48:17.871354,206.70144653320312,225.26699829101562
2025-08-10 18:48:17.871854,224.111328125,226.28968811035156
2025-08-10 18:48:17.888425,248.20167541503906,227.2168731689453
2025-08-10 18:48:17.888925,275.2666015625,227.50450134277344
2025-08-10 18:48:17.889425,298.54400634765625,226.1725616455078
2025-08-10 18:48:17.889925,281.97479248046875,224.57521057128906
2025-08-10 18:48:17.890425,244.67926025390625,223.64340209960938
2025-08-10 18:48:17.890925,216.395751953125,223.26258850097656
2025-08-10 18:48:17.891425,205.38018798828125,223.8802490234375
2025-08-10 18:48:17.891925,216.46873474121094,225.38613891601562
2025-08-10 18:48:17.908373,240.11251831054688,226.9947509765625
2025-08-10 18:48:17.908873,263.1239318847656,227.46006774902344
2025-08-10 18:48:17.909373,292.5247497558594,226.5164337158203
2025-08-10 18:48:17.909873,291.3491516113281,224.9920654296875
2025-08-10 18:48:17.910373,256.68951416015625,223.98179626464844
2025-08-10 18:48:17.910873,223.73109436035156,223.51876831054688
2025-08-10 18:48:17.911373,206.60220336914062,223.3898162841797
2025-08-10 18:48:17.911873,210.36666870117188,225.01602172851562
2025-08-10 18:48:17.928373,230.02413940429688,226.4849853515625
2025-08-10 18:48:17.928873,248.23110961914062,226.90444946289062
2025-08-10 18:48:17.929373,278.9018249511719,226.50489807128906
2025-08-10 18:48:17.929873,295.92425537109375,225.41470336914062
2025-08-10 18:48:17.930373,268.93231201171875,224.1248779296875
2025-08-10 18:48:17.930873,232.79563903808594,223.40164184570312
2025-08-10 18:48:17.931373,210.39263916015625,223.85629272460938
2025-08-10 18:48:17.931873,206.89877319335938,224.4811553955078
2025-08-10 18:48:17.948447,224.74368286132812,225.7952117919922
2025-08-10 18:48:17.948947,247.5196990966797,227.12744140625
2025-08-10 18:48:17.949447,274.855224609375,227.49411010742188
2025-08-10 18:48:17.949947,298.1880187988281,226.15438842773438
2025-08-10 18:48:17.950447,280.68121337890625,224.3118133544922
2025-08-10 18:48:17.950947,243.42173767089844,223.6131134033203
2025-08-10 18:48:17.951447,215.81704711914062,224.0316925048828
2025-08-10 18:48:17.951947,205.73387145996094,224.6574249267578
2025-08-10 18:48:17.959743,217.80673217773438,225.78079223632812
2025-08-10 18:48:17.960243,243.30751037597656,227.34986877441406
2025-08-10 18:48:17.960743,266.6082763671875,227.51834106445312
2025-08-10 18:48:17.961243,294.4763488769531,226.34304809570312
2025-08-10 18:48:17.961743,290.4173583984375,224.7728271484375
2025-08-10 18:48:17.962243,255.2710418701172,223.77928161621094
2025-08-10 18:48:17.962743,222.97698974609375,223.8802490234375
2025-08-10 18:48:17.963243,206.747314453125,224.510009765625
2025-08-10 18:48:17.978350,211.4886016845703,225.46922302246094
2025-08-10 18:48:17.978850,235.53250122070312,226.67625427246094
2025-08-10 18:48:17.979350,259.1260986328125,227.68653869628906
2025-08-10 18:48:17.979850,287.827880859375,227.27572631835938
2025-08-10 18:48:17.980350,296.886962890625,225.8708038330078
2025-08-10 18:48:17.980850,267.5031433105469,224.38999938964844
2025-08-10 18:48:17.981350,231.72044372558594,223.58309936523438
2025-08-10 18:48:17.981850,209.9544219970703,223.774658203125
2025-08-10 18:48:17.998355,207.41458129882812,225.0595703125
2025-08-10 18:48:17.998855,226.46249389648438,226.39613342285156
2025-08-10 18:48:17.999355,251.12924194335938,227.21572875976562
2025-08-10 18:48:17.999855,278.9104919433594,227.03916931152344
2025-08-10 18:48:18.000355,299.3223571777344,226.16851806640625
2025-08-10 18:48:18.000855,279.3354187011719,224.63954162597656
2025-08-10 18:48:18.001355,242.0618133544922,223.81504821777344
2025-08-10 18:48:18.001855,215.0825653076172,223.93707275390625
2025-08-10 18:48:18.018338,205.6204833984375,224.42520141601562
2025-08-10 18:48:18.018838,218.12811279296875,225.11553955078125
2025-08-10 18:48:18.019338,241.87400817871094,226.49220275878906
2025-08-10 18:48:18.019838,266.124755859375,227.30140686035156
2025-08-10 18:48:18.020338,294.5617370605469,226.34910583496094
2025-08-10 18:48:18.020838,289.3161926269531,224.74166870117188
2025-08-10 18:48:18.021338,253.6716766357422,223.90419006347656
2025-08-10 18:48:18.021838,221.75381469726562,223.34307861328125
2025-08-10 18:48:18.038576,206.05380249023438,223.4051055908203
2025-08-10 18:48:18.039076,211.7586212158203,225.11495971679688
2025-08-10 18:48:18.039576,233.31549072265625,226.3750762939453
2025-08-10 18:48:18.040076,251.85276794433594,227.476806640625
2025-08-10 18:48:18.040576,282.23529052734375,226.80116271972656
2025-08-10 18:48:18.041076,295.1640930175781,225.06015014648438
2025-08-10 18:48:18.041576,265.91387939453125,223.88485717773438
2025-08-10 18:48:18.042076,230.47129821777344,223.6335906982422
2025-08-10 18:48:18.058459,209.35235595703125,223.81735229492188
2025-08-10 18:48:18.058959,207.6623992919922,224.74050903320312
2025-08-10 18:48:18.059459,227.19985961914062,226.4272918701172
2025-08-10 18:48:18.059959,251.13067626953125,227.19467163085938
2025-08-10 18:48:18.060459,279.1170349121094,226.7867431640625
2025-08-10 18:48:18.060959,299.0364685058594,225.650390625
2025-08-10 18:48:18.061459,277.93597412109375,224.3747100830078
2025-08-10 18:48:18.061959,240.67852783203125,223.83380126953125
2025-08-10 18:48:18.064764,214.3275909423828,223.81129455566406
2025-08-10 18:48:18.065264,205.80857849121094,224.33547973632812
2025-08-10 18:48:18.065764,219.55006408691406,225.71212768554688
2025-08-10 18:48:18.066264,245.15872192382812,227.17880249023438
2025-08-10 18:48:18.066764,269.9616394042969,227.49122619628906
2025-08-10 18:48:18.067264,296.72943115234375,226.39930725097656
2025-08-10 18:48:18.067764,288.5943908691406,224.78118896484375
2025-08-10 18:48:18.068264,252.30020141601562,223.7264862060547
2025-08-10 18:48:18.077058,220.94691467285156,223.26980590820312
2025-08-10 18:48:18.077558,206.17727661132812,224.2174835205078
2025-08-10 18:48:18.078058,212.75534057617188,225.42422485351562
2025-08-10 18:48:18.078558,237.47084045410156,226.5291290283203
2025-08-10 18:48:18.079058,260.4268798828125,227.56854248046875
2025-08-10 18:48:18.079558,289.1944580078125,226.87069702148438
2025-08-10 18:48:18.080058,295.5653991699219,225.34230041503906
2025-08-10 18:48:18.080558,264.4131774902344,224.2466278076172
2025-08-10 18:48:18.098355,229.3482208251953,223.75389099121094
2025-08-10 18:48:18.098855,208.8826904296875,224.21893310546875
2025-08-10 18:48:18.099355,208.05734252929688,225.19198608398438
2025-08-10 18:48:18.099855,228.20753479003906,226.2412109375
2025-08-10 18:48:18.100355,251.57119750976562,227.10841369628906
2025-08-10 18:48:18.100855,279.702392578125,227.3224639892578
2025-08-10 18:48:18.101355,298.7857666015625,226.12640380859375
2025-08-10 18:48:18.101855,276.5102844238281,224.63607788085938
2025-08-10 18:48:18.118373,239.38436889648438,223.787353515625
2025-08-10 18:48:18.118873,213.57608032226562,223.88226318359375
2025-08-10 18:48:18.119373,205.89772033691406,224.5645294189453
2025-08-10 18:48:18.119873,220.2095489501953,225.7363739013672
2025-08-10 18:48:18.120373,243.96554565429688,226.9595489501953
2025-08-10 18:48:18.120873,267.9687805175781,227.17967224121094
2025-08-10 18:48:18.121373,295.4272155761719,226.0248565673828
2025-08-10 18:48:18.121873,286.9707946777344,224.4710693359375
2025-08-10 18:48:18.138397,250.59669494628906,223.7360076904297
2025-08-10 18:48:18.138897,219.953369140625,223.6361846923828
2025-08-10 18:48:18.139397,205.94676208496094,224.3014373779297
2025-08-10 18:48:18.139897,213.48550415039062,225.49461364746094
2025-08-10 18:48:18.140397,238.83740234375,226.81068420410156
2025-08-10 18:48:18.140897,262.0700988769531,227.4407501220703
2025-08-10 18:48:18.141397,290.4239807128906,226.546142578125
2025-08-10 18:48:18.141897,294.6200256347656,224.7122344970703
2025-08-10 18:48:18.159496,262.7852478027344,223.81591796875
2025-08-10 18:48:18.159996,228.1224365234375,223.43309020996094
2025-08-10 18:48:18.160496,208.3654327392578,223.7870635986328
2025-08-10 18:48:18.160996,208.507080078125,224.89254760742188
2025-08-10 18:48:18.161496,229.4517822265625,225.91204833984375
2025-08-10 18:48:18.161996,253.19769287109375,226.80982971191406
2025-08-10 18:48:18.162496,281.62860107421875,226.69183349609375
2025-08-10 18:48:18.162996,298.8737487792969,225.70204162597656
2025-08-10 18:48:18.164799,274.91754150390625,224.24893188476562
2025-08-10 18:48:18.165299,237.87039184570312,223.36183166503906
2025-08-10 18:48:18.165799,212.82313537597656,223.70945739746094
2025-08-10 18:48:18.166299,205.94676208496094,224.50857543945312
2025-08-10 18:48:18.166799,221.24520874023438,226.1053466796875
2025-08-10 18:48:18.167299,246.27198791503906,227.05186462402344
2025-08-10 18:48:18.167799,271.86419677734375,227.11505126953125
2025-08-10 18:48:18.168299,297.4088134765625,226.16909790039062
2025-08-10 18:48:18.177004,285.84454345703125,224.5547332763672
2025-08-10 18:48:18.177504,249.22926330566406,223.84361267089844
2025-08-10 18:48:18.178004,219.09078979492188,223.61599731445312
2025-08-10 18:48:18.178504,205.7869415283203,224.1857452392578
2025-08-10 18:48:18.179004,214.26412963867188,225.4118194580078
2025-08-10 18:48:18.179504,239.52688598632812,226.33035278320312
2025-08-10 18:48:18.180004,262.5299377441406,226.88771057128906
2025-08-10 18:48:18.180504,291.3462829589844,226.28794860839844
2025-08-10 18:48:18.197100,294.1872863769531,225.11294555664062
2025-08-10 18:48:18.197600,261.39501953125,223.88168334960938
2025-08-10 18:48:18.198100,227.16322326660156,223.2190399169922
2025-08-10 18:48:18.198600,208.1412811279297,224.0316925048828
2025-08-10 18:48:18.199100,209.05435180664062,225.1164093017578
2025-08-10 18:48:18.199600,230.34234619140625,226.04331970214844
2025-08-10 18:48:18.200100,253.145751953125,227.21139526367188
2025-08-10 18:48:18.200600,281.7313232421875,227.12167358398438
2025-08-10 18:48:18.218367,298.2832336425781,225.7303009033203
2025-08-10 18:48:18.218867,273.60321044921875,224.29624938964844
2025-08-10 18:48:18.219367,236.74154663085938,223.47406005859375
2025-08-10 18:48:18.219867,212.29808044433594,224.13323974609375
2025-08-10 18:48:18.220367,206.26901245117188,224.8380126953125
2025-08-10 18:48:18.220867,222.37376403808594,226.0190887451172
2025-08-10 18:48:18.221367,247.1763916015625,227.37353515625
2025-08-10 18:48:18.221867,271.9810485839844,227.18975830078125
2025-08-10 18:48:18.238433,297.1361999511719,226.0453338623047
2025-08-10 18:48:18.238933,284.6066589355469,224.67935180664062
2025-08-10 18:48:18.239433,247.71124267578125,223.5911865234375
2025-08-10 18:48:18.239933,218.27206420898438,223.88284301757812
2025-08-10 18:48:18.240433,205.76963806152344,224.42864990234375
2025-08-10 18:48:18.240933,215.07505798339844,225.3085479736328
2025-08-10 18:48:18.241433,240.9759521484375,226.53952026367188
2025-08-10 18:48:18.241933,264.6295471191406,227.3732452392578
2025-08-10 18:48:18.259439,292.7569885253906,226.7772216796875
2025-08-10 18:48:18.259939,293.1325988769531,225.12362670898438
2025-08-10 18:48:18.260439,259.619384765625,224.18777465820312
2025-08-10 18:48:18.260939,225.94349670410156,223.8418731689453
2025-08-10 18:48:18.261439,207.6199951171875,224.22267150878906
2025-08-10 18:48:18.261939,209.53005981445312,224.93984985351562
2025-08-10 18:48:18.262439,231.70399475097656,226.11717224121094
2025-08-10 18:48:18.262939,255.30104064941406,227.1366729736328
2025-08-10 18:48:18.264656,283.8744812011719,227.20938110351562
2025-08-10 18:48:18.265156,298.2722473144531,225.8930206298828
2025-08-10 18:48:18.265656,272.052001953125,224.17825317382812
2025-08-10 18:48:18.266156,235.25930786132812,223.19105529785156
2025-08-10 18:48:18.266656,211.48773193359375,223.50665283203125
2025-08-10 18:48:18.267156,206.31228637695312,224.40673828125
2025-08-10 18:48:18.267656,223.11517333984375,225.6555938720703
2025-08-10 18:48:18.268156,247.83645629882812,227.04408264160156
2025-08-10 18:48:18.277606,274.3146057128906,227.33314514160156
2025-08-10 18:48:18.278106,298.2647705078125,225.92013549804688
2025-08-10 18:48:18.278606,283.3505859375,224.36981201171875
2025-08-10 18:48:18.279106,246.2898712158203,223.38780212402344
2025-08-10 18:48:18.279606,217.3166046142578,223.4255828857422
2025-08-10 18:48:18.280106,205.50999450683594,224.35076904296875
2025-08-10 18:48:18.280606,215.7628173828125,225.69395446777344
2025-08-10 18:48:18.281106,240.7437286376953,226.6361541748047
2025-08-10 18:48:18.298350,263.8136901855469,227.11648559570312
2025-08-10 18:48:18.298850,292.70159912109375,226.67538452148438
2025-08-10 18:48:18.299350,292.4009704589844,225.29757690429688
2025-08-10 18:48:18.299850,258.27447509765625,223.68003845214844
2025-08-10 18:48:18.300350,224.99380493164062,223.5883026123047
2025-08-10 18:48:18.300850,207.37420654296875,224.52096557617188
2025-08-10 18:48:18.301350,210.1309814453125,225.3671112060547
2025-08-10 18:48:18.301850,232.57003784179688,226.4789276123047
2025-08-10 18:48:18.318368,255.1169891357422,227.62538146972656
2025-08-10 18:48:18.318868,283.99420166015625,227.33285522460938
2025-08-10 18:48:18.319368,297.6003723144531,225.99801635742188
2025-08-10 18:48:18.319868,270.587646484375,224.22007751464844
2025-08-10 18:48:18.320368,234.18728637695312,223.4697265625
2025-08-10 18:48:18.320868,211.05413818359375,223.89207458496094
2025-08-10 18:48:18.321368,206.70980834960938,224.49990844726562
2025-08-10 18:48:18.321868,224.24864196777344,226.0089874267578
2025-08-10 18:48:18.338355,248.89288330078125,227.18515014648438
2025-08-10 18:48:18.338855,275.3779602050781,227.1213836669922
2025-08-10 18:48:18.339355,298.37091064453125,226.07215881347656
2025-08-10 18:48:18.339855,281.90496826171875,224.34268188476562
2025-08-10 18:48:18.340355,244.78599548339844,223.50146484375
2025-08-10 18:48:18.340855,216.4915313720703,223.2764434814453
2025-08-10 18:48:18.341355,205.5405731201172,224.08160400390625
2025-08-10 18:48:18.341855,216.76905822753906,225.59616088867188
2025-08-10 18:48:18.358567,242.62379455566406,227.1072540283203
2025-08-10 18:48:18.359067,266.3177490234375,227.55470275878906
2025-08-10 18:48:18.359567,294.0046691894531,226.1116943359375
2025-08-10 18:48:18.360067,291.13800048828125,224.33807373046875
2025-08-10 18:48:18.360567,256.525390625,223.5531005859375
2025-08-10 18:48:18.361067,223.76138305664062,223.48097229003906
2025-08-10 18:48:18.361567,206.8529052734375,224.4191436767578
2025-08-10 18:48:18.362067,210.6355438232422,225.5785675048828
2025-08-10 18:48:18.364800,233.86476135253906,226.62490844726562
2025-08-10 18:48:18.365300,256.85943603515625,227.344970703125
2025-08-10 18:48:18.365800,285.7239685058594,227.319580078125
2025-08-10 18:48:18.366300,297.2732238769531,225.89041137695312
2025-08-10 18:48:18.366800,268.9499206542969,224.400390625
2025-08-10 18:48:18.367300,232.82418823242188,223.62060546875
2025-08-10 18:48:18.367800,210.4010009765625,223.8707275390625
2025-08-10 18:48:18.368300,206.92445373535156,224.849853515625
2025-08-10 18:48:18.377695,225.11871337890625,225.7781982421875
2025-08-10 18:48:18.378195,249.65420532226562,226.78761291503906
2025-08-10 18:48:18.378695,277.0205993652344,227.0694580078125
2025-08-10 18:48:18.379195,298.91357421875,226.10678100585938
2025-08-10 18:48:18.379695,280.70343017578125,224.44192504882812
2025-08-10 18:48:18.380195,243.4090576171875,223.58251953125
2025-08-10 18:48:18.380695,215.6601104736328,223.59262084960938
2025-08-10 18:48:18.381195,205.50509643554688,224.46009826660156
2025-08-10 18:48:18.398391,217.54421997070312,225.54798889160156
2025-08-10 18:48:18.398891,242.4074249267578,226.79827880859375
2025-08-10 18:48:18.399391,266.3111267089844,226.93992614746094
2025-08-10 18:48:18.399891,294.560302734375,226.45411682128906
2025-08-10 18:48:18.400391,290.4078369140625,225.26844787597656
2025-08-10 18:48:18.400891,255.15103149414062,224.03602600097656
2025-08-10 18:48:18.401391,222.89938354492188,223.88168334960938
2025-08-10 18:48:18.401891,206.73924255371094,224.3201904296875
2025-08-10 18:48:18.418450,211.38819885253906,225.08900451660156
2025-08-10 18:48:18.418950,235.02706909179688,226.48960876464844
2025-08-10 18:48:18.419450,257.59710693359375,227.3025665283203
2025-08-10 18:48:18.419950,286.58135986328125,226.60874938964844
2025-08-10 18:48:18.420450,296.85723876953125,225.4602813720703
2025-08-10 18:48:18.420950,267.5126647949219,224.06517028808594
2025-08-10 18:48:18.421450,231.7305450439453,223.2184600830078
2025-08-10 18:48:18.421950,209.9189453125,223.86985778808594
2025-08-10 18:48:18.438491,207.26370239257812,225.15737915039062
2025-08-10 18:48:18.438991,226.1445770263672,226.21755981445312
2025-08-10 18:48:18.439491,250.3318634033203,227.1612091064453
2025-08-10 18:48:18.439991,277.6125793457031,227.19927978515625
2025-08-10 18:48:18.440491,298.8368225097656,225.68934631347656
2025-08-10 18:48:18.440991,279.2139892578125,224.08074951171875
2025-08-10 18:48:18.441491,241.86363220214844,223.139404296875
2025-08-10 18:48:18.441991,214.97869873046875,223.57675170898438
2025-08-10 18:48:18.459493,205.59971618652344,224.79214477539062
2025-08-10 18:48:18.459993,218.42236328125,225.804443359375
2025-08-10 18:48:18.460493,243.67677307128906,226.80636596679688
2025-08-10 18:48:18.460993,267.9704895019531,227.2287139892578
2025-08-10 18:48:18.461493,295.4280700683594,225.6082763671875
2025-08-10 18:48:18.461993,289.1402282714844,224.52413940429688
2025-08-10 18:48:18.462493,253.5078125,224.04872131347656
2025-08-10 18:48:18.462993,221.8008270263672,223.8736114501953
2025-08-10 18:48:18.465024,206.33363342285156,224.35018920898438
2025-08-10 18:48:18.465524,211.96026611328125,225.1417999267578
2025-08-10 18:48:18.466024,236.3039093017578,226.2954559326172
2025-08-10 18:48:18.466524,259.3384094238281,227.23562622070312
2025-08-10 18:48:18.467024,288.1305236816406,226.96502685546875
2025-08-10 18:48:18.467524,296.24420166015625,225.19862365722656
2025-08-10 18:48:18.468024,265.83917236328125,223.96275329589844
2025-08-10 18:48:18.468524,230.39859008789062,223.78330993652344
2025-08-10 18:48:18.478517,209.3382110595703,224.24085998535156
2025-08-10 18:48:18.479017,207.66903686523438,225.2704620361328
2025-08-10 18:48:18.479517,227.19293212890625,226.33901977539062
2025-08-10 18:48:18.480017,251.26539611816406,226.99012756347656
2025-08-10 18:48:18.480517,279.28033447265625,227.06686401367188
2025-08-10 18:48:18.481017,299.02001953125,226.17745971679688
2025-08-10 18:48:18.481517,277.9281921386719,224.45375061035156
2025-08-10 18:48:18.482017,240.72265625,223.54791259765625
2025-08-10 18:48:18.498503,214.24191284179688,224.06285095214844
2025-08-10 18:48:18.499003,205.65164184570312,224.6254119873047
2025-08-10 18:48:18.499503,219.2598419189453,225.4954833984375
2025-08-10 18:48:18.500003,243.7209014892578,226.6453857421875
2025-08-10 18:48:18.500503,268.3210144042969,227.04119873046875
2025-08-10 18:48:18.501003,295.78753662109375,226.1018829345703
2025-08-10 18:48:18.501503,288.1622619628906,224.52212524414062
2025-08-10 18:48:18.502003,252.0922088623047,223.43568420410156
2025-08-10 18:48:18.518481,220.89671325683594,223.3445281982422
2025-08-10 18:48:18.518981,206.16458129882812,224.0469970703125
2025-08-10 18:48:18.519481,212.68553161621094,225.44961547851562
2025-08-10 18:48:18.519981,236.9486846923828,227.09051513671875
2025-08-10 18:48:18.520481,259.19415283203125,227.77423095703125
2025-08-10 18:48:18.520981,288.3552551269531,227.2203369140625
2025-08-10 18:48:18.521481,295.4081726074219,225.77415466308594
2025-08-10 18:48:18.521981,264.3254699707031,224.05535888671875
2025-08-10 18:48:18.538485,229.2305145263672,223.29202270507812
2025-08-10 18:48:18.538985,208.85009765625,223.8101348876953
2025-08-10 18:48:18.539485,208.08792114257812,224.80455017089844
2025-08-10 18:48:18.539985,227.91847229003906,226.2562255859375
2025-08-10 18:48:18.540485,250.13223266601562,227.56739807128906
2025-08-10 18:48:18.540985,277.90655517578125,227.2330322265625
2025-08-10 18:48:18.541485,298.1582946777344,225.91551208496094
2025-08-10 18:48:18.541985,276.392578125,224.47250366210938
2025-08-10 18:48:18.559491,239.18243408203125,223.334716796875
2025-08-10 18:48:18.559991,213.34068298339844,223.46136474609375
2025-08-10 18:48:18.560491,205.7321319580078,224.5651092529297
2025-08-10 18:48:18.560991,220.03875732421875,226.18496704101562
2025-08-10 18:48:18.561491,243.9392852783203,227.11936950683594
2025-08-10 18:48:18.561991,269.0687561035156,227.29678344726562
2025-08-10 18:48:18.562491,296.0191955566406,225.90109252929688
2025-08-10 18:48:18.562991,286.8020324707031,224.2402801513672
2025-08-10 18:48:18.565024,250.52572631835938,223.75677490234375
2025-08-10 18:48:18.565524,219.927978515625,223.97573852539062
2025-08-10 18:48:18.566024,205.93667602539062,224.42605590820312
2025-08-10 18:48:18.566524,213.44366455078125,225.5124969482422
2025-08-10 18:48:18.567024,238.7021026611328,227.0694580078125
2025-08-10 18:48:18.567524,261.8661193847656,227.43035888671875
2025-08-10 18:48:18.568024,290.4695739746094,226.78443908691406
2025-08-10 18:48:18.568524,294.92669677734375,225.4951934814453
2025-08-10 18:48:18.578493,262.8008117675781,224.0152587890625
2025-08-10 18:48:18.578993,228.14060974121094,223.887451171875
2025-08-10 18:48:18.579493,208.4684295654297,224.1759490966797
2025-08-10 18:48:18.579993,208.56304931640625,224.83859252929688
2025-08-10 18:48:18.580493,229.45120239257812,226.25765991210938
2025-08-10 18:48:18.580993,253.39414978027344,227.23072814941406
2025-08-10 18:48:18.581493,281.7419738769531,226.9921417236328
2025-08-10 18:48:18.581993,298.7196960449219,225.86416625976562
2025-08-10 18:48:18.598497,274.93743896484375,224.00949096679688
2025-08-10 18:48:18.598997,237.9381866455078,223.441162109375
2025-08-10 18:48:18.599497,212.75880432128906,224.057373046875
2025-08-10 18:48:18.599997,205.8798370361328,224.95111083984375
2025-08-10 18:48:18.600497,221.04095458984375,226.244384765625
2025-08-10 18:48:18.600997,244.9700469970703,227.15658569335938
2025-08-10 18:48:18.601497,270.38226318359375,226.98435974121094
2025-08-10 18:48:18.601997,296.7052001953125,226.20745849609375
2025-08-10 18:48:18.618489,285.79290771484375,224.81031799316406
2025-08-10 18:48:18.618989,249.12281799316406,223.6234893798828
2025-08-10 18:48:18.619489,219.0864715576172,223.9226531982422
2025-08-10 18:48:18.619989,205.8758087158203,224.4615478515625
2025-08-10 18:48:18.620489,214.2093048095703,225.22488403320312
2025-08-10 18:48:18.620989,239.07337951660156,226.3880615234375
2025-08-10 18:48:18.621489,261.71063232421875,226.99734497070312
2025-08-10 18:48:18.621989,290.8258361816406,226.4653778076172
2025-08-10 18:48:18.638356,293.937744140625,225.0145721435547
2025-08-10 18:48:18.638856,261.2395324707031,223.87159729003906
2025-08-10 18:48:18.639356,227.00917053222656,223.7654266357422
2025-08-10 18:48:18.639856,208.01983642578125,224.35423278808594
2025-08-10 18:48:18.640356,209.004150390625,225.1908416748047
2025-08-10 18:48:18.640856,230.59303283691406,226.13072204589844
2025-08-10 18:48:18.641356,254.3141326904297,227.0054168701172
2025-08-10 18:48:18.641856,282.5771484375,226.79193115234375
2025-08-10 18:48:18.658705,298.3455505371094,225.5641326904297
2025-08-10 18:48:18.659205,273.43212890625,224.1237335205078
2025-08-10 18:48:18.659705,236.64346313476562,223.68032836914062
2025-08-10 18:48:18.660205,212.058349609375,223.97256469726562
2025-08-10 18:48:18.660705,205.8535919189453,224.5478057861328
2025-08-10 18:48:18.661205,221.49676513671875,226.18582153320312
2025-08-10 18:48:18.661705,243.8184051513672,227.38160705566406
2025-08-10 18:48:18.662205,269.58978271484375,227.3351593017578
2025-08-10 18:48:18.664799,296.1527404785156,225.67694091796875
2025-08-10 18:48:18.665299,284.3689270019531,224.7956085205078
2025-08-10 18:48:18.665799,247.49343872070312,223.8450469970703
2025-08-10 18:48:18.666299,217.9763641357422,223.72705078125
2025-08-10 18:48:18.666799,205.60462951660156,224.48837280273438
2025-08-10 18:48:18.667299,215.0366973876953,225.5817413330078
2025-08-10 18:48:18.667799,240.4200439453125,227.24774169921875
2025-08-10 18:48:18.668299,263.4793395996094,227.5056610107422
2025-08-10 18:48:18.677051,291.9722900390625,226.4616241455078
2025-08-10 18:48:18.677551,293.0728759765625,225.23699951171875
2025-08-10 18:48:18.678051,259.65545654296875,223.9760284423828
2025-08-10 18:48:18.678551,225.84339904785156,223.56349182128906
2025-08-10 18:48:18.679051,207.7616424560547,224.48606872558594
2025-08-10 18:48:18.679551,209.6215057373047,225.52259826660156
2025-08-10 18:48:18.680051,231.50494384765625,226.56201171875
2025-08-10 18:48:18.680551,255.27651977539062,227.25697326660156
2025-08-10 18:48:18.698338,283.8118896484375,227.10350036621094
2025-08-10 18:48:18.698838,298.03338623046875,225.46490478515625
2025-08-10 18:48:18.699338,272.2507629394531,223.95034790039062
2025-08-10 18:48:18.699838,235.30113220214844,223.24758911132812
2025-08-10 18:48:18.700338,211.61380004882812,223.5591583251953
2025-08-10 18:48:18.700838,206.3809356689453,224.46327209472656
2025-08-10 18:48:18.701338,222.6218719482422,225.71011352539062
2025-08-10 18:48:18.701838,246.67413330078125,226.80780029296875
2025-08-10 18:48:18.718343,273.233642578125,227.24514770507812
2025-08-10 18:48:18.718843,297.74432373046875,226.58250427246094
2025-08-10 18:48:18.719343,283.6220397949219,224.85446166992188
2025-08-10 18:48:18.719843,246.22496032714844,223.4922332763672
2025-08-10 18:48:18.720343,217.36622619628906,223.35952758789062
2025-08-10 18:48:18.720843,205.76675415039062,224.19960021972656
2025-08-10 18:48:18.721343,215.49624633789062,225.46144104003906
2025-08-10 18:48:18.721843,240.0605926513672,226.66529846191406
2025-08-10 18:48:18.738343,263.06854248046875,227.47911071777344
2025-08-10 18:48:18.738843,292.0741271972656,226.8761749267578
2025-08-10 18:48:18.739343,292.30548095703125,225.05294799804688
2025-08-10 18:48:18.739843,258.3390808105469,223.74754333496094
2025-08-10 18:48:18.740343,224.93841552734375,223.72071838378906
2025-08-10 18:48:18.740843,207.53199768066406,224.41970825195312
2025-08-10 18:48:18.741343,210.09463500976562,225.40748596191406
2025-08-10 18:48:18.741843,232.4156951904297,226.94915771484375
2025-08-10 18:48:18.759464,255.66136169433594,227.70297241210938
2025-08-10 18:48:18.759964,284.2120056152344,227.15513610839844
2025-08-10 18:48:18.760464,297.46710205078125,225.81655883789062
2025-08-10 18:48:18.760964,270.7382507324219,224.66233825683594
2025-08-10 18:48:18.761464,234.10247802734375,223.7844696044922
2025-08-10 18:48:18.761964,211.05615234375,223.92005920410156
2025-08-10 18:48:18.762464,206.48277282714844,224.99005126953125
2025-08-10 18:48:18.762964,222.775634765625,225.91522216796875
2025-08-10 18:48:18.764824,243.80369567871094,226.87185668945312
2025-08-10 18:48:18.765324,270.37042236328125,227.29592895507812
2025-08-10 18:48:18.765824,296.09130859375,225.7657928466797
2025-08-10 18:48:18.766324,281.9251708984375,224.65943908691406
2025-08-10 18:48:18.766824,244.73550415039062,223.6234893798828
2025-08-10 18:48:18.767324,216.59913635253906,223.65089416503906
2025-08-10 18:48:18.767824,205.76617431640625,224.5552978515625
2025-08-10 18:48:18.768324,216.50711059570312,225.57308959960938
2025-08-10 18:48:18.777001,241.76380920410156,227.1562957763672
2025-08-10 18:48:18.777501,265.2535400390625,227.67759704589844
2025-08-10 18:48:18.778001,293.4525146484375,226.6329803466797
2025-08-10 18:48:18.778501,291.3895568847656,225.05438232421875
2025-08-10 18:48:18.779001,256.6996154785156,224.07843017578125
2025-08-10 18:48:18.779501,223.8750457763672,223.5917510986328
2025-08-10 18:48:18.780001,207.14976501464844,224.0888214111328
2025-08-10 18:48:18.780501,210.64361572265625,225.23353576660156
2025-08-10 18:48:18.798332,233.75946044921875,226.18438720703125
2025-08-10 18:48:18.798832,257.28466796875,227.0302276611328
2025-08-10 18:48:18.799332,285.9717712402344,226.70481872558594
2025-08-10 18:48:18.799832,297.144287109375,225.3760528564453
2025-08-10 18:48:18.800332,269.17840576171875,223.9442901611328
2025-08-10 18:48:18.800832,232.90957641601562,223.6018524169922
2025-08-10 18:48:18.801332,210.58938598632812,224.070068359375
2025-08-10 18:48:18.801832,207.08946228027344,224.89340209960938
2025-08-10 18:48:18.818380,224.97389221191406,226.458740234375
2025-08-10 18:48:18.818880,249.5679473876953,227.53421020507812
2025-08-10 18:48:18.819380,277.0462951660156,227.5082550048828
2025-08-10 18:48:18.819880,298.7635498046875,226.36727905273438
2025-08-10 18:48:18.820380,280.8874816894531,224.59799194335938
2025-08-10 18:48:18.820880,243.403564453125,223.54270935058594
2025-08-10 18:48:18.821380,215.8894500732422,223.97833251953125
2025-08-10 18:48:18.821880,205.77828979492188,224.7379150390625
2025-08-10 18:48:18.838383,217.29409790039062,225.66943359375
2025-08-10 18:48:18.838883,241.82699584960938,226.74549865722656
2025-08-10 18:48:18.839383,265.4471130371094,227.54547119140625
2025-08-10 18:48:18.839883,293.8266906738281,226.53518676757812
2025-08-10 18:48:18.840383,290.4799499511719,224.68453979492188
2025-08-10 18:48:18.840883,255.39854431152344,223.74551391601562
2025-08-10 18:48:18.841383,222.97410583496094,223.56752014160156
2025-08-10 18:48:18.841883,206.93858337402344,224.06112670898438
2025-08-10 18:48:18.859392,211.3512725830078,225.28517150878906
2025-08-10 18:48:18.859892,234.97543334960938,226.48585510253906
2025-08-10 18:48:18.860392,258.1160888671875,227.59536743164062
2025-08-10 18:48:18.860892,286.8199157714844,227.15975952148438
2025-08-10 18:48:18.861392,296.60076904296875,225.74819946289062
2025-08-10 18:48:18.861892,267.6407775878906,224.11334228515625
2025-08-10 18:48:18.862392,231.70716857910156,223.44261169433594
2025-08-10 18:48:18.862892,210.07644653320312,223.87533569335938
2025-08-10 18:48:18.864442,207.35630798339844,224.4517364501953
2025-08-10 18:48:18.864942,225.44903564453125,225.70982360839844
2025-08-10 18:48:18.865442,247.9910888671875,226.857421875
2025-08-10 18:48:18.865942,275.2992248535156,227.1173553466797
2025-08-10 18:48:18.866442,297.6523132324219,225.33103942871094
2025-08-10 18:48:18.866942,279.2067565917969,224.02679443359375
2025-08-10 18:48:18.867442,241.8968048095703,223.48760986328125
2025-08-10 18:48:18.867942,215.03323364257812,223.736572265625
2025-08-10 18:48:18.877056,205.81666564941406,224.49905395507812
2025-08-10 18:48:18.877556,218.2484130859375,225.86329650878906
2025-08-10 18:48:18.878056,243.44395446777344,226.9595489501953
2025-08-10 18:48:18.878556,267.8470458984375,227.55123901367188
2025-08-10 18:48:18.879056,295.2342224121094,226.4910430908203
2025-08-10 18:48:18.879556,289.4165954589844,224.97389221191406
2025-08-10 18:48:18.880056,253.69070434570312,223.89437866210938
2025-08-10 18:48:18.880556,221.91189575195312,223.31394958496094
2025-08-10 18:48:18.898338,206.59153747558594,223.9416961669922
2025-08-10 18:48:18.898838,211.86305236816406,225.0047607421875
2025-08-10 18:48:18.899338,236.20352172851562,226.45758056640625
2025-08-10 18:48:18.899838,259.6866149902344,227.58787536621094
2025-08-10 18:48:18.900338,288.3477478027344,227.1294708251953
2025-08-10 18:48:18.900838,296.1974792480469,225.50355529785156
2025-08-10 18:48:18.901338,266.123046875,223.74349975585938
2025-08-10 18:48:18.901838,230.47447204589844,223.472900390625
2025-08-10 18:48:18.918355,209.4864959716797,224.2085418701172
2025-08-10 18:48:18.918855,207.69615173339844,225.2418975830078
2025-08-10 18:48:18.919355,226.8640594482422,226.5011444091797
2025-08-10 18:48:18.919855,250.90220642089844,227.34872436523438
2025-08-10 18:48:18.920355,278.9027099609375,226.9728240966797
2025-08-10 18:48:18.920855,298.7174072265625,225.94580078125
2025-08-10 18:48:18.921355,278.06610107421875,224.7001190185547
2025-08-10 18:48:18.921855,240.65342712402344,223.83840942382812
2025-08-10 18:48:18.938069,214.4250946044922,223.78359985351562
2025-08-10 18:48:18.938569,205.83108520507812,224.30519104003906
2025-08-10 18:48:18.939069,218.04156494140625,225.4386444091797
2025-08-10 18:48:18.939569,238.34408569335938,226.7737579345703
2025-08-10 18:48:18.940069,262.5605163574219,227.47421264648438
2025-08-10 18:48:18.940569,292.62109375,226.703369140625
2025-08-10 18:48:18.941069,288.1325378417969,225.21737670898438
2025-08-10 18:48:18.941569,252.2552032470703,223.84446716308594
2025-08-10 18:48:18.959591,221.0614471435547,223.60906982421875
2025-08-10 18:48:18.960091,206.50123596191406,224.5492401123047
2025-08-10 18:48:18.960591,212.76832580566406,225.40171813964844
2025-08-10 18:48:18.961091,237.17543029785156,226.5357666015625
2025-08-10 18:48:18.961591,259.1863708496094,227.3357391357422
2025-08-10 18:48:18.962091,288.01885986328125,226.7740478515625
2025-08-10 18:48:18.962591,295.3435363769531,225.5087432861328
2025-08-10 18:48:18.963091,264.47491455078125,223.7515869140625
2025-08-10 18:48:18.970769,229.26686096191406,223.45327758789062
2025-08-10 18:48:18.971269,209.12646484375,224.2587432861328
2025-08-10 18:48:18.971769,208.2330322265625,225.25401306152344
2025-08-10 18:48:18.972269,228.3405303955078,226.57037353515625
2025-08-10 18:48:18.972769,252.58811950683594,227.23043823242188
2025-08-10 18:48:18.973269,279.6077575683594,226.4818115234375
2025-08-10 18:48:18.973769,298.03656005859375,225.06044006347656
2025-08-10 18:48:18.974269,276.4185485839844,224.32508850097656
2025-08-10 18:48:18.988332,239.19944763183594,223.5233917236328
2025-08-10 18:48:18.988832,213.6150360107422,223.83177185058594
2025-08-10 18:48:18.989332,206.0012969970703,224.57664489746094
2025-08-10 18:48:18.989832,220.01222229003906,226.11370849609375
2025-08-10 18:48:18.990332,244.6622314453125,227.26852416992188
2025-08-10 18:48:18.990832,269.8370056152344,227.35044860839844
2025-08-10 18:48:18.991332,296.33074951171875,226.06842041015625
2025-08-10 18:48:18.991832,287.07177734375,224.51866149902344
2025-08-10 18:48:19.008337,250.54823303222656,223.36875915527344
2025-08-10 18:48:19.008837,220.02981567382812,223.24124145507812
2025-08-10 18:48:19.009337,206.22227478027344,223.97140502929688
2025-08-10 18:48:19.009837,213.35105895996094,225.3870086669922
2025-08-10 18:48:19.010337,238.62709045410156,226.7671356201172
2025-08-10 18:48:19.010837,262.1722106933594,227.1262969970703
2025-08-10 18:48:19.011337,290.6103515625,226.84617614746094
2025-08-10 18:48:19.011837,294.8626403808594,225.59039306640625
2025-08-10 18:48:19.028338,263.0047912597656,224.1118927001953
2025-08-10 18:48:19.028838,228.18618774414062,223.76571655273438
2025-08-10 18:48:19.029338,208.56939697265625,223.86322021484375
2025-08-10 18:48:19.029838,208.5376739501953,224.7855224609375
2025-08-10 18:48:19.030338,229.1757049560547,226.30670166015625
2025-08-10 18:48:19.030838,252.94122314453125,227.34872436523438
2025-08-10 18:48:19.031338,281.0323181152344,226.8380889892578
2025-08-10 18:48:19.031838,296.81048583984375,225.6146240234375
2025-08-10 18:48:19.048331,273.30865478515625,224.43096923828125
2025-08-10 18:48:19.048831,237.60989379882812,223.86062622070312
2025-08-10 18:48:19.049331,213.46530151367188,224.02853393554688
2025-08-10 18:48:19.049831,206.96627807617188,225.19227600097656
2025-08-10 18:48:19.050331,221.98489379882812,226.4050750732422
2025-08-10 18:48:19.050831,246.93869018554688,227.51632690429688
2025-08-10 18:48:19.051331,272.48040771484375,227.71163940429688
2025-08-10 18:48:19.051831,296.1911315917969,226.55970764160156
2025-08-10 18:48:19.069240,283.97601318359375,224.9891815185547
2025-08-10 18:48:19.069740,248.5925750732422,224.25181579589844
2025-08-10 18:48:19.070240,219.5336151123047,224.14161682128906
2025-08-10 18:48:19.070740,206.7729949951172,224.80108642578125
2025-08-10 18:48:19.071240,215.07823181152344,225.93023681640625
2025-08-10 18:48:19.071740,240.47052001953125,227.11764526367188
2025-08-10 18:48:19.072240,264.2980651855469,227.59046936035156
2025-08-10 18:48:19.072740,291.3272399902344,226.80953979492188
2025-08-10 18:48:19.074787,292.0920104980469,225.34661865234375
2025-08-10 18:48:19.075287,260.1294250488281,224.08218383789062
2025-08-10 18:48:19.075787,227.20419311523438,223.585693359375
2025-08-10 18:48:19.076287,208.76759338378906,224.1300811767578
2025-08-10 18:48:19.076787,209.81219482421875,224.9981231689453
2025-08-10 18:48:19.077287,231.1276092529297,226.31997680664062
2025-08-10 18:48:19.077787,256.4792175292969,226.90127563476562
2025-08-10 18:48:19.078287,283.80609130859375,226.6898193359375
2025-08-10 18:48:19.088332,296.0529479980469,225.00418090820312
2025-08-10 18:48:19.088832,271.569091796875,224.1015167236328
2025-08-10 18:48:19.089332,236.04225158691406,223.6203155517578
2025-08-10 18:48:19.089832,212.44146728515625,223.5750274658203
2025-08-10 18:48:19.090332,206.86618041992188,224.63002014160156
2025-08-10 18:48:19.090832,222.17672729492188,225.9256134033203
2025-08-10 18:48:19.091332,245.41575622558594,226.92955017089844
2025-08-10 18:48:19.091832,270.9649963378906,227.51084899902344
2025-08-10 18:48:19.107530,295.1958312988281,226.33180236816406
2025-08-10 18:48:19.108030,282.4453125,224.73963928222656
2025-08-10 18:48:19.108530,246.88560485839844,223.84417724609375
2025-08-10 18:48:19.109030,218.54901123046875,223.47520446777344
2025-08-10 18:48:19.109530,206.609130859375,224.38134765625
2025-08-10 18:48:19.110030,215.6823272705078,225.62184143066406
2025-08-10 18:48:19.110530,241.3835906982422,226.50865173339844
2025-08-10 18:48:19.111030,265.1525573730469,227.02503967285156
2025-08-10 18:48:19.128350,292.0360412597656,226.35690307617188
2025-08-10 18:48:19.128850,292.09344482421875,224.96063232421875
2025-08-10 18:48:19.129350,259.727294921875,223.72389221191406
2025-08-10 18:48:19.129850,226.257080078125,223.6566619873047
2025-08-10 18:48:19.130350,207.89866638183594,224.3199005126953
2025-08-10 18:48:19.130850,209.20494079589844,225.24392700195312
2025-08-10 18:48:19.131350,230.98422241210938,226.57327270507812
2025-08-10 18:48:19.131850,254.74801635742188,227.11476135253906
2025-08-10 18:48:19.148341,283.3941345214844,227.0945587158203
2025-08-10 18:48:19.148841,298.2376403808594,226.0802459716797
2025-08-10 18:48:19.149341,272.23577880859375,224.54029846191406
2025-08-10 18:48:19.149841,235.51490783691406,223.8095703125
2025-08-10 18:48:19.150341,211.82583618164062,223.89842224121094
2025-08-10 18:48:19.150841,206.48133850097656,224.5039520263672
2025-08-10 18:48:19.151341,223.0649871826172,225.9481201171875
2025-08-10 18:48:19.151841,248.13099670410156,227.3588104248047
2025-08-10 18:48:19.168486,274.6893615722656,227.4482421875
2025-08-10 18:48:19.168986,298.3714904785156,226.39324951171875
2025-08-10 18:48:19.169486,283.2825012207031,224.60089111328125
2025-08-10 18:48:19.169986,246.2445831298828,223.45761108398438
2025-08-10 18:48:19.170486,217.49949645996094,223.58079528808594
2025-08-10 18:48:19.170986,205.8758087158203,224.20364379882812
2025-08-10 18:48:19.171486,216.09226989746094,225.4966278076172
2025-08-10 18:48:19.171986,242.3182830810547,226.43797302246094
2025-08-10 18:48:19.174785,266.3272705078125,227.13034057617188
2025-08-10 18:48:19.175285,294.0724792480469,226.7094268798828
2025-08-10 18:48:19.175785,292.3251037597656,225.0869903564453
2025-08-10 18:48:19.176285,258.1097412109375,223.46856689453125
2025-08-10 18:48:19.176785,224.88072204589844,223.145751953125
2025-08-10 18:48:19.177285,207.325439453125,223.9385223388672
2025-08-10 18:48:19.177785,210.1575164794922,225.3480682373047
2025-08-10 18:48:19.178285,232.88160705566406,226.60470581054688
2025-08-10 18:48:19.188359,256.3661193847656,227.45286560058594
2025-08-10 18:48:19.188859,285.0936279296875,227.1519775390625
2025-08-10 18:48:19.189359,297.5977783203125,225.54251098632812
2025-08-10 18:48:19.189859,270.2602233886719,223.82427978515625
2025-08-10 18:48:19.190359,233.99371337890625,223.5753173828125
2025-08-10 18:48:19.190859,210.99729919433594,223.67166137695312
2025-08-10 18:48:19.191359,206.5860595703125,223.9067840576172
2025-08-10 18:48:19.191859,222.82957458496094,225.26123046875
2025-08-10 18:48:19.207516,241.9908447265625,227.005126953125
2025-08-10 18:48:19.208016,268.46209716796875,226.97512817382812
2025-08-10 18:48:19.208516,295.55615234375,226.25535583496094
2025-08-10 18:48:19.209016,281.7073669433594,224.52992248535156
2025-08-10 18:48:19.209516,244.5912628173828,223.4654083251953
2025-08-10 18:48:19.210016,216.4381561279297,223.84996032714844
2025-08-10 18:48:19.210516,205.6236572265625,224.45289611816406
2025-08-10 18:48:19.211016,216.82789611816406,225.3679656982422
2025-08-10 18:48:19.228365,242.25106811523438,226.62750244140625
2025-08-10 18:48:19.228865,265.5022277832031,227.12513732910156
2025-08-10 18:48:19.229365,293.7075500488281,226.56114196777344
2025-08-10 18:48:19.229865,291.2914733886719,225.13458251953125
2025-08-10 18:48:19.230365,256.5804748535156,223.8101348876953
2025-08-10 18:48:19.230865,223.84793090820312,223.63734436035156
2025-08-10 18:48:19.231365,207.06983947753906,224.16354370117188
2025-08-10 18:48:19.231865,210.8833465576172,225.62933349609375
2025-08-10 18:48:19.248341,234.2224884033203,226.6964569091797
2025-08-10 18:48:19.248841,258.03271484375,227.37814331054688
2025-08-10 18:48:19.249341,286.7094421386719,227.0916748046875
2025-08-10 18:48:19.249841,297.34014892578125,225.56558227539062
2025-08-10 18:48:19.250341,268.9034729003906,224.3876953125
2025-08-10 18:48:19.250841,232.8331298828125,223.60906982421875
2025-08-10 18:48:19.251341,210.48638916015625,223.90794372558594
2025-08-10 18:48:19.251841,207.06956481933594,225.13314819335938
2025-08-10 18:48:19.268519,225.43692016601562,226.19822692871094
2025-08-10 18:48:19.269019,250.35032653808594,226.88223266601562
2025-08-10 18:48:19.269519,277.7828063964844,227.10696411132812
2025-08-10 18:48:19.270019,299.204345703125,226.0669708251953
2025-08-10 18:48:19.270519,280.6226501464844,224.44105529785156
2025-08-10 18:48:19.271019,243.35049438476562,223.8894805908203
2025-08-10 18:48:19.271519,215.75732421875,224.04409790039062
2025-08-10 18:48:19.272019,205.7064666748047,224.86167907714844
2025-08-10 18:48:19.274785,217.80673217773438,226.00552368164062
2025-08-10 18:48:19.275285,243.69725036621094,226.9015655517578
2025-08-10 18:48:19.275785,268.00079345703125,226.94281005859375
2025-08-10 18:48:19.276285,295.47943115234375,226.39382934570312
2025-08-10 18:48:19.276785,290.47186279296875,225.02870178222656
2025-08-10 18:48:19.277285,255.01890563964844,223.40049743652344
2025-08-10 18:48:19.277785,222.7499542236328,223.1746063232422
2025-08-10 18:48:19.278285,206.60855102539062,224.04554748535156
2025-08-10 18:48:19.288358,211.41128540039062,225.26239013671875
2025-08-10 18:48:19.288858,235.27835083007812,226.2406463623047
2025-08-10 18:48:19.289358,258.2548522949219,227.21226501464844
2025-08-10 18:48:19.289858,287.1955261230469,227.1467742919922
2025-08-10 18:48:19.290358,296.8399353027344,225.57481384277344
2025-08-10 18:48:19.290858,267.33929443359375,224.04959106445312
2025-08-10 18:48:19.291358,231.42733764648438,223.46136474609375
2025-08-10 18:48:19.291858,209.76229858398438,223.730224609375
2025-08-10 18:48:19.308341,207.15321350097656,224.60203552246094
2025-08-10 18:48:19.308841,224.7191619873047,225.87051391601562
2025-08-10 18:48:19.309341,243.2391357421875,227.21572875976562
2025-08-10 18:48:19.309841,270.368408203125,227.11619567871094
2025-08-10 18:48:19.310341,296.0295715332031,225.97695922851562
2025-08-10 18:48:19.310841,279.02703857421875,224.32797241210938
2025-08-10 18:48:19.311341,241.83189392089844,223.78994750976562
2025-08-10 18:48:19.311841,214.906005859375,223.70628356933594
2025-08-10 18:48:19.328405,205.65338134765625,224.2143096923828
2025-08-10 18:48:19.328905,218.61537170410156,225.6466522216797
2025-08-10 18:48:19.329405,243.73301696777344,226.93185424804688
2025-08-10 18:48:19.329905,267.420654296875,227.19351196289062
2025-08-10 18:48:19.330405,295.1465148925781,226.4050750732422
2025-08-10 18:48:19.330905,289.27117919921875,224.8509979248047
2025-08-10 18:48:19.331405,253.5764617919922,223.800048828125
2025-08-10 18:48:19.331905,221.82534790039062,223.54934692382812
2025-08-10 18:48:19.348405,206.43373107910156,224.3103790283203
2025-08-10 18:48:19.348905,212.15240478515625,225.10977172851562
2025-08-10 18:48:19.349405,236.68875122070312,226.60096740722656
2025-08-10 18:48:19.349905,260.2921447753906,227.3905487060547
2025-08-10 18:48:19.350405,288.9186706542969,226.86839294433594
2025-08-10 18:48:19.350905,296.1784362792969,225.8390655517578
2025-08-10 18:48:19.351405,265.7237854003906,224.41769409179688
2025-08-10 18:48:19.351905,230.31002807617188,223.6142578125
2025-08-10 18:48:19.368668,209.3260955810547,223.91543579101562
2025-08-10 18:48:19.369168,207.6941375732422,225.2000732421875
2025-08-10 18:48:19.369668,227.36602783203125,226.2383270263672
2025-08-10 18:48:19.370168,251.719482421875,227.11331176757812
2025-08-10 18:48:19.370668,279.7566223144531,227.17332458496094
2025-08-10 18:48:19.371168,299.1155090332031,225.68069458007812
2025-08-10 18:48:19.371668,277.6766357421875,224.13987731933594
2025-08-10 18:48:19.372168,240.38311767578125,223.56637573242188
2025-08-10 18:48:19.374844,214.0907440185547,224.0478515625
2025-08-10 18:48:19.375344,205.72665405273438,224.65570068359375
2025-08-10 18:48:19.375844,219.62217712402344,225.80300903320312
2025-08-10 18:48:19.376344,245.21469116210938,227.074951171875
2025-08-10 18:48:19.376844,270.3502197265625,227.28207397460938
2025-08-10 18:48:19.377344,296.836181640625,226.65318298339844
2025-08-10 18:48:19.377844,288.1758117675781,225.19515991210938
2025-08-10 18:48:19.378344,251.96873474121094,224.04930114746094
2025-08-10 18:48:19.388511,229.13877868652344,223.17315673828125
2025-08-10 18:48:19.389011,208.61843872070312,223.54617309570312
2025-08-10 18:48:19.389511,207.7832794189453,224.2503662109375
2025-08-10 18:48:19.390011,226.85194396972656,225.94349670410156
2025-08-10 18:48:19.390511,245.00350952148438,227.3161163330078
2025-08-10 18:48:19.391011,272.8796691894531,227.44969177246094
2025-08-10 18:48:19.391511,296.4193115234375,225.9775390625
2025-08-10 18:48:19.392011,276.1591796875,224.38076782226562
2025-08-10 18:48:19.408495,239.07569885253906,223.7106170654297
2025-08-10 18:48:19.408995,213.40443420410156,223.8061065673828
2025-08-10 18:48:19.409495,205.732421875,224.72463989257812
2025-08-10 18:48:19.409995,220.28512573242188,225.68270874023438
2025-08-10 18:48:19.410495,244.9674530029297,227.09426879882812
2025-08-10 18:48:19.410995,269.78680419921875,227.5440216064453
2025-08-10 18:48:19.411495,296.49432373046875,226.4717254638672
2025-08-10 18:48:19.411995,286.9794616699219,224.9764862060547
2025-08-10 18:48:19.428537,250.48851013183594,223.78359985351562
2025-08-10 18:48:19.429037,219.89134216308594,223.77293395996094
2025-08-10 18:48:19.429537,205.98138427734375,224.41452026367188
2025-08-10 18:48:19.430037,213.58761596679688,225.8549346923828
2025-08-10 18:48:19.430537,239.04425048828125,226.8409881591797
2025-08-10 18:48:19.431037,262.4044494628906,227.1329345703125
2025-08-10 18:48:19.431537,290.78314208984375,226.6130828857422
2025-08-10 18:48:19.432037,294.8782043457031,225.1608428955078
2025-08-10 18:48:19.448497,262.5758056640625,223.7608184814453
2025-08-10 18:48:19.448997,227.9672393798828,223.5718536376953
2025-08-10 18:48:19.449497,208.3394775390625,224.1690216064453
2025-08-10 18:48:19.449997,208.51170349121094,224.85475158691406
2025-08-10 18:48:19.450497,229.538330078125,226.3687286376953
2025-08-10 18:48:19.450997,253.58224487304688,227.59536743164062
2025-08-10 18:48:19.451497,282.0119934082031,227.42919921875
2025-08-10 18:48:19.451997,298.789794921875,226.22938537597656
2025-08-10 18:48:19.468531,274.80157470703125,224.5068359375
2025-08-10 18:48:19.469031,237.75875854492188,223.64657592773438
2025-08-10 18:48:19.469531,212.74783325195312,224.1889190673828
2025-08-10 18:48:19.470031,205.93580627441406,224.96524047851562
2025-08-10 18:48:19.470531,221.29165649414062,225.87628173828125
2025-08-10 18:48:19.471031,246.2191925048828,226.66212463378906
2025-08-10 18:48:19.471531,271.94439697265625,226.930419921875
2025-08-10 18:48:19.472031,297.47113037109375,225.92214965820312
2025-08-10 18:48:19.474772,285.64605712890625,224.54087829589844
2025-08-10 18:48:19.475272,248.89605712890625,223.8418731689453
2025-08-10 18:48:19.475772,218.8752899169922,223.62608337402344
2025-08-10 18:48:19.476272,205.69261169433594,223.99102783203125
2025-08-10 18:48:19.476772,214.31748962402344,225.34373474121094
2025-08-10 18:48:19.477272,239.66046142578125,226.76280212402344
2025-08-10 18:48:19.477772,262.67303466796875,227.28640747070312
2025-08-10 18:48:19.478272,291.40570068359375,226.78530883789062
2025-08-10 18:48:19.488555,293.9824523925781,225.22891235351562
2025-08-10 18:48:19.489055,261.1633605957031,224.01266479492188
2025-08-10 18:48:19.489555,226.9958953857422,223.334716796875
2025-08-10 18:48:19.490055,207.82366943359375,223.77552795410156
2025-08-10 18:48:19.490555,208.46697998046875,223.98294067382812
2025-08-10 18:48:19.491055,226.36065673828125,225.70521545410156
2025-08-10 18:48:19.491555,241.51600646972656,227.3715057373047
2025-08-10 18:48:19.492055,270.8374938964844,227.1952362060547
2025-08-10 18:48:19.508506,294.7062683105469,225.7499237060547
2025-08-10 18:48:19.509006,273.0718078613281,223.8903350830078
2025-08-10 18:48:19.509506,236.3737335205078,223.23605346679688
2025-08-10 18:48:19.510006,211.9992218017578,223.5594482421875
2025-08-10 18:48:19.510506,206.10572814941406,224.75291442871094
2025-08-10 18:48:19.511006,222.00103759765625,226.12783813476562
2025-08-10 18:48:19.511506,245.2954559326172,226.91195678710938
2025-08-10 18:48:19.512006,270.8568115234375,227.09715270996094
2025-08-10 18:48:19.528548,297.0563049316406,226.11312866210938
2025-08-10 18:48:19.529048,284.6043395996094,224.805419921875
2025-08-10 18:48:19.529548,247.6446075439453,223.9188995361328
2025-08-10 18:48:19.530048,218.18783569335938,223.84475708007812
2025-08-10 18:48:19.530548,205.75233459472656,224.64761352539062
2025-08-10 18:48:19.531048,215.2265167236328,225.68704223632812
2025-08-10 18:48:19.531548,241.09971618652344,226.99964904785156
2025-08-10 18:48:19.532048,264.7241516113281,227.16293334960938
2025-08-10 18:48:19.548581,292.957763671875,226.4685516357422
2025-08-10 18:48:19.549081,293.24884033203125,225.31431579589844
2025-08-10 18:48:19.549581,259.5475769042969,224.10238647460938
2025-08-10 18:48:19.550081,225.8491668701172,223.67340087890625
2025-08-10 18:48:19.550581,207.65777587890625,224.34902954101562
2025-08-10 18:48:19.551081,209.6691131591797,225.09361267089844
2025-08-10 18:48:19.551581,232.00027465820312,226.54095458984375
2025-08-10 18:48:19.552081,256.1881408691406,227.45863342285156
2025-08-10 18:48:19.568602,284.8172607421875,227.1588897705078
2025-08-10 18:48:19.569102,298.3138122558594,225.8814697265625
2025-08-10 18:48:19.569602,271.8376770019531,224.02708435058594
2025-08-10 18:48:19.570102,235.19757080078125,223.35635375976562
2025-08-10 18:48:19.570602,211.47186279296875,223.8314971923828
2025-08-10 18:48:19.571102,206.34170532226562,224.83224487304688
2025-08-10 18:48:19.571602,223.24327087402344,226.0485076904297
2025-08-10 18:48:19.572102,247.95501708984375,227.451416015625
2025-08-10 18:48:19.574951,274.6111755371094,227.4000701904297
2025-08-10 18:48:19.575451,298.47564697265625,226.05686950683594
2025-08-10 18:48:19.575951,283.2132568359375,224.47019958496094
2025-08-10 18:48:19.576451,245.99850463867188,223.4085693359375
2025-08-10 18:48:19.576951,217.16802978515625,223.4178009033203
2025-08-10 18:48:19.577451,205.56741333007812,224.14767456054688
2025-08-10 18:48:19.577951,216.04754638671875,225.43605041503906
2025-08-10 18:48:19.578451,241.21539306640625,226.6909637451172
2025-08-10 18:48:19.588624,264.4048156738281,227.17388916015625
2025-08-10 18:48:19.589124,293.0143127441406,226.5106658935547
2025-08-10 18:48:19.589624,292.1996154785156,225.26123046875
2025-08-10 18:48:19.590124,257.98193359375,224.06834411621094
2025-08-10 18:48:19.590624,224.7442626953125,223.70831298828125
2025-08-10 18:48:19.591124,207.21322631835938,224.5322265625
2025-08-10 18:48:19.591624,210.0028839111328,225.0177459716797
2025-08-10 18:48:19.592124,230.01490783691406,226.44863891601562
2025-08-10 18:48:19.608329,246.6427001953125,226.9852294921875
2025-08-10 18:48:19.608829,276.5226745605469,226.6318359375
2025-08-10 18:48:19.609329,295.7035827636719,225.56240844726562
2025-08-10 18:48:19.609829,270.0605773925781,224.19989013671875
2025-08-10 18:48:19.610329,233.73147583007812,223.51242065429688
2025-08-10 18:48:19.610829,210.7636260986328,223.96592712402344
2025-08-10 18:48:19.611329,206.61029052734375,224.61962890625
2025-08-10 18:48:19.611829,223.91717529296875,225.92416381835938
2025-08-10 18:48:19.628353,246.92137145996094,226.94166564941406
2025-08-10 18:48:19.628853,273.7745666503906,227.24429321289062
2025-08-10 18:48:19.629353,297.8931884765625,226.2562255859375
2025-08-10 18:48:19.629853,281.791015625,224.63406372070312
2025-08-10 18:48:19.630353,244.55665588378906,223.75503540039062
2025-08-10 18:48:19.630853,216.40988159179688,223.7495574951172
2025-08-10 18:48:19.631353,205.6098175048828,224.64877319335938
2025-08-10 18:48:19.631853,216.93377685546875,225.69366455078125
2025-08-10 18:48:19.647718,242.68466186523438,227.17994689941406
2025-08-10 18:48:19.648218,266.3731384277344,227.61065673828125
2025-08-10 18:48:19.648718,294.22393798828125,226.66268920898438
2025-08-10 18:48:19.649218,291.2066345214844,224.89138793945312
2025-08-10 18:48:19.649718,256.3753662109375,223.59031677246094
2025-08-10 18:48:19.650218,223.67369079589844,223.35952758789062
2025-08-10 18:48:19.650718,206.87887573242188,223.957275390625
2025-08-10 18:48:19.651218,210.8207550048828,225.04400634765625
2025-08-10 18:48:19.668756,234.21815490722656,226.52854919433594
2025-08-10 18:48:19.669256,257.7984619140625,227.6121063232422
2025-08-10 18:48:19.669756,286.6289367675781,227.2901611328125
2025-08-10 18:48:19.670256,297.2215881347656,225.92474365234375
2025-08-10 18:48:19.670756,268.6311340332031,224.19786071777344
2025-08-10 18:48:19.671256,232.60177612304688,223.3021240234375
2025-08-10 18:48:19.671756,210.2501220703125,223.9284210205078
2025-08-10 18:48:19.672256,207.0207977294922,224.994384765625
2025-08-10 18:48:19.674678,225.4467315673828,226.150634765625
2025-08-10 18:48:19.675178,249.90634155273438,227.5030517578125
2025-08-10 18:48:19.675678,277.1239013671875,227.5001678466797
2025-08-10 18:48:19.676178,298.9245300292969,226.36526489257812
2025-08-10 18:48:19.676678,280.4322509765625,224.82504272460938
2025-08-10 18:48:19.677178,243.09027099609375,223.649169921875
2025-08-10 18:48:19.677678,215.51182556152344,223.3768310546875
2025-08-10 18:48:19.678178,205.5486602783203,224.12863159179688
2025-08-10 18:48:19.688684,217.8191375732422,225.3760528564453
2025-08-10 18:48:19.689184,243.2815399169922,226.62115478515625
2025-08-10 18:48:19.689684,267.0548400878906,227.0651397705078
2025-08-10 18:48:19.690184,294.8470458984375,226.4901885986328
2025-08-10 18:48:19.690684,290.1060791015625,225.02322387695312
2025-08-10 18:48:19.691184,254.80081176757812,223.75619506835938
2025-08-10 18:48:19.691684,222.63023376464844,223.9099578857422
2025-08-10 18:48:19.692184,206.5352783203125,224.24200439453125
2025-08-10 18:48:19.708331,211.18885803222656,224.6802215576172
2025-08-10 18:48:19.708831,232.1453857421875,226.56346130371094
2025-08-10 18:48:19.709331,249.03857421875,227.03512573242188
2025-08-10 18:48:19.709831,279.2185974121094,226.81300354003906
2025-08-10 18:48:19.710331,295.1508483886719,225.76463317871094
2025-08-10 18:48:19.710831,266.9631042480469,224.3842315673828
2025-08-10 18:48:19.711331,231.2906036376953,223.65089416503906
2025-08-10 18:48:19.711831,209.7074737548828,223.74551391601562
2025-08-10 18:48:19.727143,207.36524963378906,224.72752380371094
2025-08-10 18:48:19.727643,226.3883514404297,226.06784057617188
2025-08-10 18:48:19.728143,249.72921752929688,227.1300506591797
2025-08-10 18:48:19.728643,276.9216613769531,227.1340789794922
2025-08-10 18:48:19.729143,298.5731506347656,225.93368530273438
2025-08-10 18:48:19.729643,278.9970397949219,224.5636749267578
2025-08-10 18:48:19.730143,241.69082641601562,223.73426818847656
2025-08-10 18:48:19.730643,214.82810974121094,223.8199462890625
2025-08-10 18:48:19.748340,205.6392364501953,224.72291564941406
2025-08-10 18:48:19.748840,218.7200927734375,225.5947265625
2025-08-10 18:48:19.749340,244.25315856933594,226.7902069091797
2025-08-10 18:48:19.749840,268.6799011230469,227.21572875976562
2025-08-10 18:48:19.750340,296.0990905761719,226.59864807128906
2025-08-10 18:48:19.750840,289.4287109375,225.10487365722656
2025-08-10 18:48:19.751340,253.18470764160156,223.5629119873047
2025-08-10 18:48:19.751840,221.56802368164062,223.61973571777344
2025-08-10 18:48:19.768951,206.2938232421875,224.41452026367188
2025-08-10 18:48:19.769451,212.15182495117188,225.44903564453125
2025-08-10 18:48:19.769951,236.7571258544922,227.04725646972656
2025-08-10 18:48:19.770451,260.09539794921875,227.7107696533203
2025-08-10 18:48:19.770951,288.8575134277344,227.24688720703125
2025-08-10 18:48:19.771451,296.04888916015625,225.84425354003906
2025-08-10 18:48:19.771951,265.4156799316406,224.33633422851562
2025-08-10 18:48:19.772451,230.11587524414062,223.63099670410156
2025-08-10 18:48:19.774625,209.21359252929688,223.9549560546875
2025-08-10 18:48:19.775125,207.7457733154297,225.01544189453125
2025-08-10 18:48:19.775625,227.61297607421875,226.0058135986328
2025-08-10 18:48:19.776125,252.07518005371094,227.23361206054688
2025-08-10 18:48:19.776625,280.0701904296875,227.48402404785156
2025-08-10 18:48:19.777125,299.22369384765625,226.31796264648438
2025-08-10 18:48:19.777625,277.5018005371094,224.69580078125
2025-08-10 18:48:19.778125,240.24176025390625,223.6208953857422
2025-08-10 18:48:19.788649,220.72882080078125,223.49569702148438
2025-08-10 18:48:19.789149,206.069091796875,224.0792999267578
2025-08-10 18:48:19.789649,212.29405212402344,224.6343536376953
2025-08-10 18:48:19.790149,232.0943145751953,226.8026123046875
2025-08-10 18:48:19.790649,251.92315673828125,227.5440216064453
2025-08-10 18:48:19.791149,282.5987854003906,226.94973754882812
2025-08-10 18:48:19.791649,294.0343933105469,225.4322967529297
2025-08-10 18:48:19.792149,263.7485046386719,224.06430053710938
2025-08-10 18:48:19.808482,228.8768310546875,223.70887756347656
2025-08-10 18:48:19.808982,208.74913024902344,224.18748474121094
2025-08-10 18:48:19.809482,208.20388793945312,224.93841552734375
2025-08-10 18:48:19.809982,228.4429473876953,226.12899780273438
2025-08-10 18:48:19.810482,251.53744506835938,227.219482421875
2025-08-10 18:48:19.810982,279.6533508300781,226.79049682617188
2025-08-10 18:48:19.811482,298.67266845703125,225.8136749267578
2025-08-10 18:48:19.811982,276.12371826171875,224.60867309570312
2025-08-10 18:48:19.828601,239.0179901123047,223.53463745117188
2025-08-10 18:48:19.829101,213.47222900390625,223.6751251220703
2025-08-10 18:48:19.829601,206.00042724609375,224.63983154296875
2025-08-10 18:48:19.830101,220.67401123046875,225.56875610351562
2025-08-10 18:48:19.830601,246.1802520751953,226.6583709716797
2025-08-10 18:48:19.831101,271.59765625,227.15542602539062
2025-08-10 18:48:19.831601,297.1604309082031,226.33987426757812
2025-08-10 18:48:19.832101,286.69384765625,224.69493103027344
2025-08-10 18:48:19.848347,250.19309997558594,223.919189453125
2025-08-10 18:48:19.848847,219.79672241210938,223.69532775878906
2025-08-10 18:48:19.849347,205.99609375,224.06228637695312
2025-08-10 18:48:19.849847,213.66868591308594,225.1195831298828
2025-08-10 18:48:19.850347,239.0713653564453,226.5712432861328
2025-08-10 18:48:19.850847,262.7633361816406,227.5771942138672
2025-08-10 18:48:19.851347,291.1486511230469,226.89637756347656
2025-08-10 18:48:19.851847,294.9007263183594,225.10833740234375
2025-08-10 18:48:19.868610,262.89459228515625,223.6774444580078
2025-08-10 18:48:19.869110,228.3114013671875,223.29432678222656
2025-08-10 18:48:19.869610,208.54920959472656,223.77783203125
2025-08-10 18:48:19.870110,208.60401916503906,224.7707977294922
2025-08-10 18:48:19.870610,229.49794006347656,226.00148010253906
2025-08-10 18:48:19.871110,253.7908172607422,226.94021606445312
2025-08-10 18:48:19.871610,282.1271057128906,226.8378143310547
2025-08-10 18:48:19.872110,298.7886657714844,225.9261932373047
2025-08-10 18:48:19.874642,274.98016357421875,224.81983947753906
2025-08-10 18:48:19.875142,237.96934509277344,223.7807159423828
2025-08-10 18:48:19.875642,212.85948181152344,223.61195373535156
2025-08-10 18:48:19.876142,205.97474670410156,224.64675903320312
2025-08-10 18:48:19.876642,221.20452880859375,225.9449462890625
2025-08-10 18:48:19.877142,245.9745635986328,226.7803955078125
2025-08-10 18:48:19.877642,271.63629150390625,227.0885009765625
2025-08-10 18:48:19.878142,297.2827453613281,226.16159057617188
2025-08-10 18:48:19.888624,285.6899108886719,224.86917114257812
2025-08-10 18:48:19.889124,249.1057891845703,224.09689331054688
2025-08-10 18:48:19.889624,219.0714569091797,223.77899169921875
2025-08-10 18:48:19.890124,205.73155212402344,223.8612060546875
2025-08-10 18:48:19.890624,213.8201446533203,224.949951171875
2025-08-10 18:48:19.891124,235.65338134765625,227.181396484375
2025-08-10 18:48:19.891624,256.6546325683594,227.59075927734375
2025-08-10 18:48:19.892124,287.3392028808594,226.81039428710938
2025-08-10 18:48:19.908353,293.296142578125,225.4698028564453
2025-08-10 18:48:19.908853,260.8795166015625,223.8551483154297
2025-08-10 18:48:19.909353,226.85972595214844,223.55223083496094
2025-08-10 18:48:19.909853,207.94857788085938,223.8614959716797
2025-08-10 18:48:19.910353,208.9848175048828,224.93812561035156
2025-08-10 18:48:19.910853,230.08761596679688,226.1861114501953
2025-08-10 18:48:19.911353,252.3460693359375,227.01406860351562
2025-08-10 18:48:19.911853,280.9633483886719,226.8626251220703
2025-08-10 18:48:19.928364,297.9159851074219,225.8909912109375
2025-08-10 18:48:19.928864,273.6161804199219,224.72695922851562
2025-08-10 18:48:19.929364,237.21841430664062,223.74609375
2025-08-10 18:48:19.929864,212.9529571533203,223.6425323486328
2025-08-10 18:48:19.930364,206.6575927734375,224.69810485839844
2025-08-10 18:48:19.930864,222.02642822265625,226.06149291992188
2025-08-10 18:48:19.931364,247.6509552001953,226.90040588378906
2025-08-10 18:48:19.931864,273.2445983886719,227.11302185058594
2025-08-10 18:48:19.948326,296.269287109375,226.41287231445312
2025-08-10 18:48:19.948826,285.46405029296875,225.15505981445312
2025-08-10 18:48:19.949326,253.8799591064453,223.72677612304688
2025-08-10 18:48:19.949826,228.41236877441406,223.81764221191406
2025-08-10 18:48:19.950326,216.78347778320312,224.53077697753906
2025-08-10 18:48:19.950826,221.86631774902344,225.1357421875
2025-08-10 18:48:19.951326,242.71206665039062,226.3877716064453
2025-08-10 18:48:19.951826,268.8255920410156,227.313232421875
2025-08-10 18:48:19.968581,284.082763671875,227.0538787841797
2025-08-10 18:48:19.969081,279.23907470703125,225.91696166992188
2025-08-10 18:48:19.969581,255.5174102783203,224.89022827148438
2025-08-10 18:48:19.970081,232.1324005126953,224.6874237060547
2025-08-10 18:48:19.970581,219.09194946289062,224.9150390625
2025-08-10 18:48:19.971081,219.7445068359375,225.70318603515625
2025-08-10 18:48:19.971581,235.8515625,226.26429748535156
2025-08-10 18:48:19.972081,260.62188720703125,227.0694580078125
2025-08-10 18:48:19.980382,279.1940612792969,227.05215454101562
2025-08-10 18:48:19.980882,280.80352783203125,225.9227294921875
2025-08-10 18:48:19.981382,261.8664245605469,225.213623046875
2025-08-10 18:48:19.981882,237.15725708007812,225.08323669433594
2025-08-10 18:48:19.982382,221.04470825195312,225.1712188720703
2025-08-10 18:48:19.982882,217.20033264160156,225.4698028564453
2025-08-10 18:48:19.983382,228.7732696533203,226.106201171875
2025-08-10 18:48:19.983882,251.67015075683594,227.14735412597656
2025-08-10 18:48:19.998607,273.1750793457031,227.09542846679688
2025-08-10 18:48:19.999107,280.85345458984375,226.19766235351562
2025-08-10 18:48:19.999607,267.7293395996094,225.21420288085938
2025-08-10 18:48:20.000107,242.95208740234375,224.7350311279297
2025-08-10 18:48:20.000607,224.09689331054688,224.75868225097656
2025-08-10 18:48:20.001107,216.28958129882812,224.51116943359375
2025-08-10 18:48:20.001607,223.05718994140625,224.9860076904297
2025-08-10 18:48:20.002107,243.23739624023438,226.2663116455078
2025-08-10 18:48:20.018346,266.6604919433594,226.61134338378906
2025-08-10 18:48:20.018846,279.3885192871094,226.314208984375
2025-08-10 18:48:20.019346,272.8609313964844,225.4155731201172
2025-08-10 18:48:20.019846,249.59535217285156,224.7707977294922
2025-08-10 18:48:20.020346,227.97300720214844,224.56741333007812
2025-08-10 18:48:20.020846,216.7811737060547,224.65541076660156
2025-08-10 18:48:20.021346,218.9318389892578,225.4634552001953
2025-08-10 18:48:20.021846,235.31874084472656,226.24237060546875
2025-08-10 18:48:20.038358,259.17425537109375,227.14505004882812
2025-08-10 18:48:20.038858,276.3236389160156,226.80059814453125
2025-08-10 18:48:20.039358,276.6432800292969,225.72828674316406
2025-08-10 18:48:20.039858,257.3077392578125,225.0789031982422
2025-08-10 18:48:20.040358,233.64926147460938,224.667236328125
2025-08-10 18:48:20.040858,218.97596740722656,224.73329162597656
2025-08-10 18:48:20.041358,216.38623046875,225.31143188476562
2025-08-10 18:48:20.041858,228.5404510498047,225.72164916992188
2025-08-10 18:48:20.058334,251.21463012695312,226.36122131347656
2025-08-10 18:48:20.058834,271.7724609375,226.6228790283203
2025-08-10 18:48:20.059334,278.20947265625,226.1956329345703
2025-08-10 18:48:20.059834,264.4529724121094,225.2346954345703
2025-08-10 18:48:20.060334,240.09751892089844,224.69464111328125
2025-08-10 18:48:20.060834,222.13604736328125,224.35105895996094
2025-08-10 18:48:20.061334,215.26170349121094,224.9534149169922
2025-08-10 18:48:20.061834,222.88121032714844,226.0026397705078
2025-08-10 18:48:20.078951,243.0862274169922,226.43739318847656
2025-08-10 18:48:20.079451,265.95916748046875,226.6422119140625
2025-08-10 18:48:20.079951,277.97637939453125,226.57412719726562
2025-08-10 18:48:20.080451,270.6923828125,225.7230987548828
2025-08-10 18:48:20.080951,247.4611358642578,224.9560089111328
2025-08-10 18:48:20.081451,226.52566528320312,224.4644317626953
2025-08-10 18:48:20.081951,215.89320373535156,224.43499755859375
2025-08-10 18:48:20.082451,218.5787353515625,225.02438354492188
2025-08-10 18:48:20.084832,235.5111541748047,225.97695922851562
2025-08-10 18:48:20.085332,259.1180114746094,226.82713317871094
2025-08-10 18:48:20.085832,275.6073303222656,226.4630584716797
2025-08-10 18:48:20.086332,275.1434326171875,225.4291229248047
2025-08-10 18:48:20.086832,255.25257873535156,224.4803009033203
2025-08-10 18:48:20.087332,231.99334716796875,224.2852783203125
2025-08-10 18:48:20.087832,217.822021484375,224.7771453857422
2025-08-10 18:48:20.088332,215.87330627441406,225.0682373046875
2025-08-10 18:48:20.098568,228.6772003173828,225.6723175048828
2025-08-10 18:48:20.099068,251.4757080078125,226.63816833496094
2025-08-10 18:48:20.099568,271.5959167480469,226.7584686279297
2025-08-10 18:48:20.100068,277.49114990234375,226.00985717773438
2025-08-10 18:48:20.100568,262.9268798828125,224.9877471923828
2025-08-10 18:48:20.101068,238.6478729248047,224.43991088867188
2025-08-10 18:48:20.101568,221.09231567382812,224.29364013671875
2025-08-10 18:48:20.102068,214.64492797851562,224.37298583984375
2025-08-10 18:48:20.118352,222.699462890625,224.8821563720703
2025-08-10 18:48:20.118852,243.33462524414062,226.20401000976562
2025-08-10 18:48:20.119352,266.1674499511719,226.3274688720703
2025-08-10 18:48:20.119852,277.3353576660156,225.9385986328125
2025-08-10 18:48:20.120352,269.2528381347656,224.96986389160156
2025-08-10 18:48:20.120852,245.8562774658203,224.22036743164062
2025-08-10 18:48:20.121352,225.23641967773438,224.00372314453125
2025-08-10 18:48:20.121852,215.05775451660156,224.375
2025-08-10 18:48:20.138370,218.5640106201172,225.2283477783203
2025-08-10 18:48:20.138870,235.88560485839844,225.75743103027344
2025-08-10 18:48:20.139370,259.708251953125,226.24842834472656
2025-08-10 18:48:20.139870,275.7310791015625,226.1145782470703
2025-08-10 18:48:20.140370,274.2217102050781,225.39999389648438
2025-08-10 18:48:20.140870,253.89784240722656,224.72781372070312
2025-08-10 18:48:20.141370,230.8255615234375,224.6605987548828
2025-08-10 18:48:20.141870,217.07859802246094,224.61935424804688
2025-08-10 18:48:20.157567,215.79771423339844,225.00534057617188
2025-08-10 18:48:20.158067,229.17340087890625,226.0513916015625
2025-08-10 18:48:20.158567,252.38328552246094,226.74867248535156
2025-08-10 18:48:20.159067,272.2735595703125,226.65231323242188
2025-08-10 18:48:20.159567,277.10369873046875,225.77330017089844
2025-08-10 18:48:20.160067,261.78851318359375,225.06332397460938
2025-08-10 18:48:20.160567,237.51065063476562,224.51577758789062
2025-08-10 18:48:20.161067,220.4279327392578,224.1658477783203
2025-08-10 18:48:20.178604,215.02774047851562,224.37384033203125
2025-08-10 18:48:20.179104,219.01577758789062,225.00563049316406
2025-08-10 18:48:20.179604,236.8624267578125,225.7559814453125
2025-08-10 18:48:20.180104,260.4998474121094,226.4489288330078
2025-08-10 18:48:20.180604,275.9909973144531,226.5654754638672
2025-08-10 18:48:20.181104,273.7936096191406,225.82089233398438
2025-08-10 18:48:20.181604,252.75140380859375,224.72897338867188
2025-08-10 18:48:20.182104,229.94076538085938,224.2725830078125
2025-08-10 18:48:20.184514,216.70904541015625,224.77513122558594
2025-08-10 18:48:20.185014,215.9364776611328,225.24710083007812
2025-08-10 18:48:20.185514,229.98866271972656,225.99485778808594
2025-08-10 18:48:20.186014,253.5233917236328,226.60067749023438
2025-08-10 18:48:20.186514,272.9310302734375,226.62721252441406
2025-08-10 18:48:20.187014,276.8584899902344,226.0418701171875
2025-08-10 18:48:20.187514,260.70294189453125,224.87408447265625
2025-08-10 18:48:20.188014,236.3751678466797,223.8961181640625
2025-08-10 18:48:20.198596,219.59304809570312,223.87245178222656
2025-08-10 18:48:20.199096,214.39393615722656,224.32077026367188
2025-08-10 18:48:20.199596,223.98870849609375,225.0590057373047
2025-08-10 18:48:20.200096,245.6182861328125,226.01763916015625
2025-08-10 18:48:20.200596,268.0504150390625,226.46392822265625
2025-08-10 18:48:20.201096,277.8067321777344,225.9605255126953
2025-08-10 18:48:20.201596,267.7293395996094,224.65829467773438
2025-08-10 18:48:20.202096,243.49732971191406,223.74754333496094
2025-08-10 18:48:20.218358,223.51963806152344,224.1952667236328
2025-08-10 18:48:20.218858,214.2505645751953,224.8538818359375
2025-08-10 18:48:20.219358,218.88568115234375,225.1328582763672
2025-08-10 18:48:20.219858,237.63412475585938,225.76695251464844
2025-08-10 18:48:20.220358,261.54705810546875,226.6329803466797
2025-08-10 18:48:20.220858,276.6524963378906,226.53028869628906
2025-08-10 18:48:20.221358,273.5613708496094,225.76751708984375
2025-08-10 18:48:20.221858,251.79246520996094,224.79849243164062
2025-08-10 18:48:20.238352,228.86183166503906,224.21546936035156
2025-08-10 18:48:20.238852,215.85916137695312,224.3360595703125
2025-08-10 18:48:20.239352,215.85397338867188,225.27651977539062
2025-08-10 18:48:20.239852,230.77882385253906,226.07908630371094
2025-08-10 18:48:20.240352,254.7771453857422,226.67942810058594
2025-08-10 18:48:20.240852,273.8723449707031,226.49624633789062
2025-08-10 18:48:20.241352,277.2785339355469,225.7781982421875
2025-08-10 18:48:20.241852,260.0518493652344,224.89398193359375
2025-08-10 18:48:20.258346,235.38681030273438,224.1793975830078
2025-08-10 18:48:20.258846,218.81961059570312,224.2696990966797
2025-08-10 18:48:20.259346,214.0431365966797,224.6190643310547
2025-08-10 18:48:20.259846,224.390869140625,225.45970153808594
2025-08-10 18:48:20.260346,246.7050018310547,225.88262939453125
2025-08-10 18:48:20.260846,269.3644714355469,226.19044494628906
2025-08-10 18:48:20.261346,278.7073974609375,225.93051147460938
2025-08-10 18:48:20.261846,267.6915283203125,225.18304443359375
2025-08-10 18:48:20.278975,242.87506103515625,224.27200317382812
2025-08-10 18:48:20.279475,222.79611206054688,224.41885375976562
2025-08-10 18:48:20.279975,213.84927368164062,224.56338500976562
2025-08-10 18:48:20.280475,219.34149169921875,225.1648712158203
2025-08-10 18:48:20.280975,238.77105712890625,226.0926513671875
2025-08-10 18:48:20.281475,263.0893249511719,226.26890563964844
2025-08-10 18:48:20.281975,278.0580139160156,226.27439880371094
2025-08-10 18:48:20.282475,274.03564453125,225.60943603515625
2025-08-10 18:48:20.284678,251.21923828125,224.55299377441406
2025-08-10 18:48:20.285178,228.08724975585938,224.45895385742188
2025-08-10 18:48:20.285678,215.1630401611328,224.5933837890625
2025-08-10 18:48:20.286178,215.62808227539062,225.17266845703125
2025-08-10 18:48:20.286678,231.31771850585938,226.01303100585938
2025-08-10 18:48:20.287178,255.9732208251953,226.41806030273438
2025-08-10 18:48:20.287678,275.4668273925781,226.06639099121094
2025-08-10 18:48:20.288178,278.061767578125,225.650390625
2025-08-10 18:48:20.298743,259.7232360839844,225.05784606933594
2025-08-10 18:48:20.299243,234.51385498046875,224.4488525390625
2025-08-10 18:48:20.299743,217.7796173095703,224.20912170410156
2025-08-10 18:48:20.300243,213.43905639648438,224.51548767089844
2025-08-10 18:48:20.300743,224.74195861816406,225.52981567382812
2025-08-10 18:48:20.301243,248.15985107421875,226.35171508789062
2025-08-10 18:48:20.301743,271.4510803222656,226.49969482421875
2025-08-10 18:48:20.302243,280.66650390625,225.9446563720703
2025-08-10 18:48:20.318506,267.95751953125,224.76272583007812
2025-08-10 18:48:20.319006,241.77391052246094,223.98727416992188
2025-08-10 18:48:20.319506,221.424072265625,223.74090576171875
2025-08-10 18:48:20.320006,212.70889282226562,223.9869842529297
2025-08-10 18:48:20.320506,219.05674743652344,224.8432159423828
2025-08-10 18:48:20.321006,239.3832244873047,225.90887451171875
2025-08-10 18:48:20.321506,264.3070068359375,226.4884490966797
2025-08-10 18:48:20.322006,279.5664978027344,226.19332885742188
2025-08-10 18:48:20.338506,274.4856872558594,225.32296752929688
2025-08-10 18:48:20.339006,250.51821899414062,224.48895263671875
2025-08-10 18:48:20.339506,226.74000549316406,224.02938842773438
2025-08-10 18:48:20.340006,213.833984375,224.28903198242188
2025-08-10 18:48:20.340506,215.21583557128906,224.63059997558594
2025-08-10 18:48:20.341006,232.33750915527344,225.47268676757812
2025-08-10 18:48:20.341506,257.9908752441406,226.31881713867188
2025-08-10 18:48:20.342006,277.6125793457031,226.49969482421875
2025-08-10 18:48:20.357239,279.35302734375,225.76780700683594
2025-08-10 18:48:20.357739,259.2189636230469,224.818115234375
2025-08-10 18:48:20.358239,233.02151489257812,223.86495971679688
2025-08-10 18:48:20.358739,216.15255737304688,223.91860961914062
2025-08-10 18:48:20.359239,212.4120330810547,224.34759521484375
2025-08-10 18:48:20.359739,225.1559295654297,225.38267517089844
2025-08-10 18:48:20.360239,249.94442749023438,226.54701232910156
2025-08-10 18:48:20.360739,273.38885498046875,226.90560913085938
2025-08-10 18:48:20.379259,282.084716796875,226.2089080810547
2025-08-10 18:48:20.379759,267.9961853027344,225.0869903564453
2025-08-10 18:48:20.380259,240.79248046875,224.4075927734375
2025-08-10 18:48:20.380759,219.9308624267578,224.1052703857422
2025-08-10 18:48:20.381259,211.5090789794922,224.73619079589844
2025-08-10 18:48:20.381759,219.2281036376953,225.19515991210938
2025-08-10 18:48:20.382259,241.45945739746094,225.98330688476562
2025-08-10 18:48:20.382759,267.4160461425781,226.93849182128906
2025-08-10 18:48:20.384345,282.6758117675781,226.57095336914062
2025-08-10 18:48:20.384845,275.8499450683594,225.27305603027344
2025-08-10 18:48:20.385345,249.71853637695312,224.4612579345703
2025-08-10 18:48:20.385845,225.0535125732422,224.30807495117188
2025-08-10 18:48:20.386345,212.09498596191406,224.2428741455078
2025-08-10 18:48:20.386845,214.45538330078125,224.5198211669922
2025-08-10 18:48:20.387345,233.4196319580078,225.43951416015625
2025-08-10 18:48:20.387845,260.8535461425781,226.22390747070312
2025-08-10 18:48:20.398820,276.47076416015625,226.7864532470703
2025-08-10 18:48:20.399320,285.66424560546875,226.22708129882812
2025-08-10 18:48:20.399820,269.2066650390625,224.6643524169922
2025-08-10 18:48:20.400320,239.4735107421875,223.89466857910156
2025-08-10 18:48:20.400820,217.46719360351562,224.1046905517578
2025-08-10 18:48:20.401320,209.14781188964844,224.35508728027344
2025-08-10 18:48:20.401820,218.5830535888672,225.1328582763672
2025-08-10 18:48:20.402320,242.14865112304688,226.2351531982422
2025-08-10 18:48:20.418302,265.63433837890625,226.68577575683594
2025-08-10 18:48:20.418802,285.3858642578125,226.22650146484375
2025-08-10 18:48:20.419302,278.3894958496094,225.27392578125
2025-08-10 18:48:20.419802,249.39601135253906,224.05160522460938
2025-08-10 18:48:20.420302,222.68215942382812,223.69561767578125
2025-08-10 18:48:20.420802,209.20205688476562,224.0697784423828
2025-08-10 18:48:20.421302,212.8837127685547,224.43414306640625
2025-08-10 18:48:20.421802,233.3757781982422,225.41787719726562
2025-08-10 18:48:20.438362,257.01580810546875,226.828857421875
2025-08-10 18:48:20.438862,281.336669921875,226.8539581298828
2025-08-10 18:48:20.439362,285.7839660644531,226.0701446533203
2025-08-10 18:48:20.439862,260.3873596191406,224.85850524902344
2025-08-10 18:48:20.440362,229.82508850097656,223.5911865234375
2025-08-10 18:48:20.440862,211.11471557617188,223.56723022460938
2025-08-10 18:48:20.441362,208.5939178466797,224.0218963623047
2025-08-10 18:48:20.441862,224.77542114257812,224.73849487304688
2025-08-10 18:48:20.458384,246.05648803710938,225.96224975585938
2025-08-10 18:48:20.458884,271.04144287109375,226.6093292236328
2025-08-10 18:48:20.459384,289.3594665527344,226.4108428955078
2025-08-10 18:48:20.459884,271.77276611328125,225.47845458984375
2025-08-10 18:48:20.460384,238.71249389648438,224.33518981933594
2025-08-10 18:48:20.460884,214.68675231933594,223.5972442626953
2025-08-10 18:48:20.461384,206.27391052246094,223.41693115234375
2025-08-10 18:48:20.461884,217.84568786621094,224.53424072265625
2025-08-10 18:48:20.478406,241.61639404296875,225.9905242919922
2025-08-10 18:48:20.478906,263.2811584472656,226.71664428710938
2025-08-10 18:48:20.479406,288.205810546875,226.94195556640625
2025-08-10 18:48:20.479906,282.6169738769531,225.9163818359375
2025-08-10 18:48:20.480406,249.56101989746094,224.27345275878906
2025-08-10 18:48:20.480906,220.21299743652344,223.5724334716797
2025-08-10 18:48:20.481406,205.92282104492188,223.18499755859375
2025-08-10 18:48:20.481906,211.20327758789062,224.02880859375
2025-08-10 18:48:20.484642,233.78341674804688,225.50730895996094
2025-08-10 18:48:20.485142,253.5629119873047,226.85972595214844
2025-08-10 18:48:20.485642,280.5626525878906,227.60459899902344
2025-08-10 18:48:20.486142,290.64324951171875,226.747802734375
2025-08-10 18:48:20.486642,262.0879821777344,225.19256591796875
2025-08-10 18:48:20.487142,227.9591522216797,223.83062744140625
2025-08-10 18:48:20.487642,207.7004852294922,223.28538513183594
2025-08-10 18:48:20.488142,206.20497131347656,223.95986938476562
2025-08-10 18:48:20.498420,224.67271423339844,225.16458129882812
2025-08-10 18:48:20.498920,243.46241760253906,226.66038513183594
2025-08-10 18:48:20.499420,268.237060546875,227.26217651367188
2025-08-10 18:48:20.499920,292.7915954589844,226.3814239501953
2025-08-10 18:48:20.500420,275.1261291503906,224.5255889892578
2025-08-10 18:48:20.500920,237.64393615722656,223.62002563476562
2025-08-10 18:48:20.501420,211.4678192138672,223.03440856933594
2025-08-10 18:48:20.501920,203.22085571289062,223.50001525878906
2025-08-10 18:48:20.518432,215.8784942626953,224.5365447998047
2025-08-10 18:48:20.518932,232.30319213867188,225.8976287841797
2025-08-10 18:48:20.519432,251.74717712402344,226.8184814453125
2025-08-10 18:48:20.519932,283.3860778808594,226.71751403808594
2025-08-10 18:48:20.520432,285.94091796875,225.4894256591797
2025-08-10 18:48:20.520932,250.05780029296875,224.13035583496094
2025-08-10 18:48:20.521432,217.8661651611328,223.28077697753906
2025-08-10 18:48:20.521932,202.9231414794922,222.95074462890625
2025-08-10 18:48:20.538454,209.66680908203125,223.94227600097656
2025-08-10 18:48:20.538954,227.4127655029297,225.35296630859375
2025-08-10 18:48:20.539454,241.5148468017578,226.61134338378906
2025-08-10 18:48:20.539954,271.31494140625,227.1141815185547
2025-08-10 18:48:20.540454,292.07122802734375,226.44430541992188
2025-08-10 18:48:20.540954,263.7314758300781,225.0139923095703
2025-08-10 18:48:20.541454,226.72500610351562,223.73831176757812
2025-08-10 18:48:20.541954,205.46182250976562,223.28134155273438
2025-08-10 18:48:20.558335,205.04150390625,223.6693572998047
2025-08-10 18:48:20.558835,223.47377014160156,224.79791259765625
2025-08-10 18:48:20.559335,235.09515380859375,226.2089080810547
2025-08-10 18:48:20.559835,258.3812255859375,227.41940307617188
2025-08-10 18:48:20.560335,289.9093322753906,227.26852416992188
2025-08-10 18:48:20.560835,277.23150634765625,225.3544158935547
2025-08-10 18:48:20.561335,237.9027099609375,223.69358825683594
2025-08-10 18:48:20.561835,210.5810089111328,223.11863708496094
2025-08-10 18:48:20.578506,202.8097686767578,223.11805725097656
2025-08-10 18:48:20.579006,216.89944458007812,224.58444213867188
2025-08-10 18:48:20.579506,231.23521423339844,226.1739959716797
2025-08-10 18:48:20.580006,248.3894805908203,227.197265625
2025-08-10 18:48:20.580506,281.78466796875,227.30862426757812
2025-08-10 18:48:20.581006,287.6210632324219,226.23919677734375
2025-08-10 18:48:20.581506,250.57736206054688,224.30490112304688
2025-08-10 18:48:20.582006,217.879150390625,223.228271484375
2025-08-10 18:48:20.584530,203.3218231201172,223.37828063964844
2025-08-10 18:48:20.585030,211.33193969726562,224.0994873046875
2025-08-10 18:48:20.585530,229.8888397216797,225.76983642578125
2025-08-10 18:48:20.586030,242.53089904785156,227.4191131591797
2025-08-10 18:48:20.586530,271.9334411621094,227.6273956298828
2025-08-10 18:48:20.587030,293.12420654296875,226.29776000976562
2025-08-10 18:48:20.587530,264.0514221191406,224.65252685546875
2025-08-10 18:48:20.588030,227.1337890625,223.53665161132812
2025-08-10 18:48:20.598671,206.51075744628906,222.76524353027344
2025-08-10 18:48:20.599171,207.18495178222656,223.1518096923828
2025-08-10 18:48:20.599671,227.2327423095703,224.7001190185547
2025-08-10 18:48:20.600171,239.52053833007812,226.70884704589844
2025-08-10 18:48:20.600671,262.31646728515625,227.68479919433594
2025-08-10 18:48:20.601171,292.0501708984375,226.9886932373047
2025-08-10 18:48:20.601671,276.3247985839844,224.8088836669922
2025-08-10 18:48:20.602171,237.43621826171875,223.40280151367188
2025-08-10 18:48:20.618453,211.4733123779297,222.88265991210938
2025-08-10 18:48:20.618953,204.8712921142578,223.25279235839844
2025-08-10 18:48:20.619453,219.47015380859375,224.55386352539062
2025-08-10 18:48:20.619953,232.7168731689453,226.0863037109375
2025-08-10 18:48:20.620453,249.75344848632812,227.37208557128906
2025-08-10 18:48:20.620953,282.98101806640625,227.47796630859375
2025-08-10 18:48:20.621453,286.46160888671875,226.125244140625
2025-08-10 18:48:20.621953,249.31263732910156,224.20709228515625
2025-08-10 18:48:20.638382,217.96165466308594,223.30154418945312
2025-08-10 18:48:20.638882,204.71002197265625,223.16912841796875
2025-08-10 18:48:20.639382,213.54896545410156,224.17449951171875
2025-08-10 18:48:20.639882,231.01019287109375,225.83128356933594
2025-08-10 18:48:20.640382,243.3069305419922,227.54547119140625
2025-08-10 18:48:20.640882,273.1866149902344,227.5114288330078
2025-08-10 18:48:20.641382,292.34674072265625,226.34622192382812
2025-08-10 18:48:20.641882,262.1070251464844,224.767333984375
2025-08-10 18:48:20.658335,226.3026580810547,223.70225524902344
2025-08-10 18:48:20.658835,206.7464599609375,222.96690368652344
2025-08-10 18:48:20.659335,208.24081420898438,223.65377807617188
2025-08-10 18:48:20.659835,226.9892578125,225.24276733398438
2025-08-10 18:48:20.660335,237.09091186523438,226.68722534179688
2025-08-10 18:48:20.660835,260.4060974121094,227.75433349609375
2025-08-10 18:48:20.661335,290.6296691894531,227.2102508544922
2025-08-10 18:48:20.661835,274.8607177734375,225.09967041015625
2025-08-10 18:48:20.678408,236.3592987060547,223.6131134033203
2025-08-10 18:48:20.678908,210.90786743164062,223.22509765625
2025-08-10 18:48:20.679408,205.0579376220703,223.55079650878906
2025-08-10 18:48:20.679908,220.49917602539062,224.73243713378906
2025-08-10 18:48:20.680408,233.66368103027344,226.86895751953125
2025-08-10 18:48:20.680908,249.99778747558594,228.09762573242188
2025-08-10 18:48:20.681408,283.1336364746094,227.62393188476562
2025-08-10 18:48:20.681908,285.32989501953125,225.68963623046875
2025-08-10 18:48:20.684619,247.88031005859375,224.23739624023438
2025-08-10 18:48:20.685119,217.05984497070312,223.7005157470703
2025-08-10 18:48:20.685619,204.36471557617188,223.42962646484375
2025-08-10 18:48:20.686119,214.1314239501953,224.2714385986328
2025-08-10 18:48:20.686619,232.0259552001953,226.31622314453125
2025-08-10 18:48:20.687119,243.8429412841797,227.9429931640625
2025-08-10 18:48:20.687619,273.4027099609375,227.94126892089844
2025-08-10 18:48:20.688119,291.97576904296875,226.37796020507812
2025-08-10 18:48:20.697591,260.8030700683594,224.74542236328125
2025-08-10 18:48:20.698091,225.1870880126953,223.69935607910156
2025-08-10 18:48:20.698591,206.19284057617188,222.9683380126953
2025-08-10 18:48:20.699091,208.7318115234375,223.49136352539062
2025-08-10 18:48:20.699591,228.35841369628906,225.28863525390625
2025-08-10 18:48:20.700091,237.70826721191406,227.33717346191406
2025-08-10 18:48:20.700591,260.4176330566406,227.81980895996094
2025-08-10 18:48:20.701091,290.45599365234375,226.79454040527344
2025-08-10 18:48:20.718624,273.14190673828125,224.97071838378906
2025-08-10 18:48:20.719124,234.6941680908203,224.09776306152344
2025-08-10 18:48:20.719624,210.07241821289062,223.49310302734375
2025-08-10 18:48:20.720124,205.12631225585938,223.72389221191406
2025-08-10 18:48:20.720624,220.65554809570312,225.06101989746094
2025-08-10 18:48:20.721124,229.87989807128906,226.7157745361328
2025-08-10 18:48:20.721624,246.63519287109375,227.47161865234375
2025-08-10 18:48:20.722124,285.39654541015625,226.63096618652344
2025-08-10 18:48:20.738382,285.5318298339844,224.71426391601562
2025-08-10 18:48:20.738882,244.97091674804688,223.1575927734375
2025-08-10 18:48:20.739382,213.36866760253906,222.80764770507812
2025-08-10 18:48:20.739882,201.6220703125,223.70858764648438
2025-08-10 18:48:20.740382,212.59263610839844,225.151611328125
2025-08-10 18:48:20.740882,227.62681579589844,226.48239135742188
2025-08-10 18:48:20.741382,244.92735290527344,227.72230529785156
2025-08-10 18:48:20.741882,279.9750061035156,227.55613708496094
2025-08-10 18:48:20.758335,294.7348327636719,225.8722381591797
2025-08-10 18:48:20.758835,259.23138427734375,223.8845672607422
2025-08-10 18:48:20.759335,222.54397583007812,222.93487548828125
2025-08-10 18:48:20.759835,203.799560546875,223.24932861328125
2025-08-10 18:48:20.760335,206.77183532714844,224.3011474609375
2025-08-10 18:48:20.760835,219.57601928710938,226.05255126953125
2025-08-10 18:48:20.761335,228.21705627441406,227.9623260498047
2025-08-10 18:48:20.761835,255.46893310546875,228.59901428222656
2025-08-10 18:48:20.778994,289.4627380371094,227.1205291748047
2025-08-10 18:48:20.779494,273.5775146484375,224.88504028320312
2025-08-10 18:48:20.779994,235.41220092773438,223.39356994628906
2025-08-10 18:48:20.780494,210.98287963867188,222.4842529296875
2025-08-10 18:48:20.780994,206.5998992919922,222.7669677734375
2025-08-10 18:48:20.781494,222.90025329589844,224.1975860595703
2025-08-10 18:48:20.781994,231.6607208251953,226.37997436523438
2025-08-10 18:48:20.782494,245.53634643554688,227.60633850097656
2025-08-10 18:48:20.784607,279.7802734375,227.10955810546875
2025-08-10 18:48:20.785107,283.1919250488281,225.75540161132812
2025-08-10 18:48:20.785607,245.77896118164062,224.05853271484375
2025-08-10 18:48:20.786107,215.7374267578125,223.34249877929688
2025-08-10 18:48:20.786607,204.2161407470703,223.39212036132812
2025-08-10 18:48:20.787107,214.81051635742188,224.43760681152344
2025-08-10 18:48:20.787607,226.21092224121094,226.37709045410156
2025-08-10 18:48:20.788107,232.92054748535156,227.70297241210938
2025-08-10 18:48:20.798346,243.6632080078125,228.11032104492188
2025-08-10 18:48:20.798846,281.00921630859375,226.48614501953125
2025-08-10 18:48:20.799346,270.4613037109375,224.12574768066406
2025-08-10 18:48:20.799846,231.3976287841797,223.1619110107422
2025-08-10 18:48:20.800346,206.69625854492188,222.8047637939453
2025-08-10 18:48:20.800846,203.37808227539062,223.56031799316406
2025-08-10 18:48:20.801346,217.13600158691406,224.95571899414062
2025-08-10 18:48:20.801846,215.39297485351562,226.93214416503906
2025-08-10 18:48:20.818993,225.6506805419922,228.17494201660156
2025-08-10 18:48:20.819493,264.2530517578125,227.38449096679688
2025-08-10 18:48:20.819993,280.7441101074219,225.57394409179688
2025-08-10 18:48:20.820493,243.6271514892578,223.63705444335938
2025-08-10 18:48:20.820993,211.80795288085938,222.43809509277344
2025-08-10 18:48:20.821493,200.5719757080078,222.20068359375
2025-08-10 18:48:20.821993,210.8896942138672,223.74148559570312
2025-08-10 18:48:20.822493,209.04742431640625,226.0199432373047
2025-08-10 18:48:20.838697,207.5648956298828,227.52008056640625
2025-08-10 18:48:20.839197,237.4535369873047,227.6666259765625
2025-08-10 18:48:20.839697,277.91290283203125,226.13938903808594
2025-08-10 18:48:20.840197,257.34930419921875,223.95323181152344
2025-08-10 18:48:20.840697,219.7381591796875,222.48483276367188
2025-08-10 18:48:20.841197,200.9221954345703,222.0668182373047
2025-08-10 18:48:20.841697,204.2100830078125,223.04623413085938
2025-08-10 18:48:20.842197,203.8543701171875,225.19862365722656
2025-08-10 18:48:20.858317,194.62396240234375,227.27919006347656
2025-08-10 18:48:20.858817,212.7409210205078,228.3892822265625
2025-08-10 18:48:20.859317,261.32147216796875,227.35968017578125
2025-08-10 18:48:20.859817,269.4576416015625,224.98658752441406
2025-08-10 18:48:20.860317,230.80276489257812,223.00209045410156
2025-08-10 18:48:20.860817,205.34844970703125,222.4894561767578
2025-08-10 18:48:20.861317,202.94650268554688,222.9268035888672
2025-08-10 18:48:20.861817,213.29971313476562,224.38365173339844
2025-08-10 18:48:20.878777,202.61648559570312,226.60586547851562
2025-08-10 18:48:20.879277,208.53363037109375,228.07138061523438
2025-08-10 18:48:20.879777,250.1333770751953,227.85818481445312
2025-08-10 18:48:20.880277,277.9267578125,225.65097045898438
2025-08-10 18:48:20.880777,243.36000061035156,223.73080444335938
2025-08-10 18:48:20.881277,211.5344696044922,223.11257934570312
2025-08-10 18:48:20.881777,201.07595825195312,222.81341552734375
2025-08-10 18:48:20.882277,212.21240234375,223.85572814941406
2025-08-10 18:48:20.884613,207.684326171875,226.1024627685547
2025-08-10 18:48:20.885113,203.22547912597656,227.4566192626953
2025-08-10 18:48:20.885613,233.31173706054688,227.45977783203125
2025-08-10 18:48:20.886113,276.70501708984375,226.19015502929688
2025-08-10 18:48:20.886613,257.287841796875,224.37557983398438
2025-08-10 18:48:20.887113,220.1778106689453,222.93630981445312
2025-08-10 18:48:20.887613,202.171630859375,222.80938720703125
2025-08-10 18:48:20.888113,207.5178680419922,223.87216186523438
2025-08-10 18:48:20.898340,210.91046142578125,225.77012634277344
2025-08-10 18:48:20.898840,200.00279235839844,227.37353515625
2025-08-10 18:48:20.899340,216.90174865722656,227.41305541992188
2025-08-10 18:48:20.899840,265.101806640625,226.27093505859375
2025-08-10 18:48:20.900340,269.54302978515625,224.4422149658203
2025-08-10 18:48:20.900840,230.09222412109375,223.54934692382812
2025-08-10 18:48:20.901340,204.9809112548828,223.02488708496094
2025-08-10 18:48:20.901840,203.28721618652344,222.97727966308594
2025-08-10 18:48:20.918654,211.08932495117188,224.66578674316406
2025-08-10 18:48:20.919154,195.01197814941406,226.61134338378906
2025-08-10 18:48:20.919654,196.9122314453125,227.31553649902344
2025-08-10 18:48:20.920154,239.63795471191406,227.01004028320312
2025-08-10 18:48:20.920654,274.9605407714844,225.41787719726562
2025-08-10 18:48:20.921154,242.14605712890625,223.768310546875
2025-08-10 18:48:20.921654,209.82546997070312,223.2700958251953
2025-08-10 18:48:20.922154,199.91798400878906,222.82928466796875
2025-08-10 18:48:20.938358,207.44573974609375,223.38462829589844
2025-08-10 18:48:20.938858,190.1244354248047,225.5987548828125
2025-08-10 18:48:20.939358,178.1303253173828,227.1612091064453
2025-08-10 18:48:20.939858,208.99635314941406,226.74404907226562
2025-08-10 18:48:20.940358,262.48492431640625,225.41152954101562
2025-08-10 18:48:20.940858,249.3763885498047,223.93995666503906
2025-08-10 18:48:20.941358,211.37290954589844,222.9071807861328
2025-08-10 18:48:20.941858,193.4192352294922,222.07200622558594
2025-08-10 18:48:20.958329,190.44869995117188,222.81053161621094
2025-08-10 18:48:20.958829,164.37355041503906,224.85330200195312
2025-08-10 18:48:20.959329,144.3609619140625,226.22824096679688
2025-08-10 18:48:20.959829,165.3417205810547,226.30987548828125
2025-08-10 18:48:20.960329,218.31446838378906,225.53846740722656
2025-08-10 18:48:20.960829,229.9817352294922,224.038330078125
2025-08-10 18:48:20.961329,191.14048767089844,222.37635803222656
2025-08-10 18:48:20.961829,167.61383056640625,220.63304138183594
2025-08-10 18:48:20.978720,150.11077880859375,220.00587463378906
2025-08-10 18:48:20.979220,110.31954956054688,221.49301147460938
2025-08-10 18:48:20.979720,79.57496643066406,223.0222930908203
2025-08-10 18:48:20.980220,81.45647430419922,223.66099548339844
2025-08-10 18:48:20.980720,119.64718627929688,223.19883728027344
2025-08-10 18:48:20.981220,161.12318420410156,221.11480712890625
2025-08-10 18:48:20.981720,138.463134765625,217.97781372070312
2025-08-10 18:48:20.982220,97.07571411132812,214.21536254882812
2025-08-10 18:48:20.990341,56.00446319580078,211.7554473876953
2025-08-10 18:48:20.990841,20.80853271484375,211.57716369628906
2025-08-10 18:48:20.991341,-10.398784637451172,212.86900329589844
2025-08-10 18:48:20.991841,-20.63140106201172,213.988037109375
2025-08-10 18:48:20.992341,5.965900897979736,213.63955688476562
2025-08-10 18:48:20.992841,57.07590103149414,211.22520446777344
2025-08-10 18:48:20.993341,69.35273742675781,205.75607299804688
2025-08-10 18:48:20.993841,41.49301528930664,198.99539184570312
2025-08-10 18:48:21.007284,20.524084091186523,195.36248779296875
2025-08-10 18:48:21.007784,-2.5210835933685303,195.5047149658203
2025-08-10 18:48:21.008284,-35.452396392822266,198.155029296875
2025-08-10 18:48:21.008784,-53.53703689575195,201.2623291015625
2025-08-10 18:48:21.009284,-28.873748779296875,202.5244598388672
2025-08-10 18:48:21.009784,29.652952194213867,201.73428344726562
2025-08-10 18:48:21.010284,59.29465103149414,198.41986083984375
2025-08-10 18:48:21.010784,39.8342170715332,193.35433959960938
2025-08-10 18:48:21.028542,21.524267196655273,189.18167114257812
2025-08-10 18:48:21.029042,1.6149474382400513,189.27658081054688
2025-08-10 18:48:21.029542,-29.78594398498535,191.9990234375
2025-08-10 18:48:21.030042,-63.70820617675781,195.72828674316406
2025-08-10 18:48:21.030542,-60.74141311645508,198.06358337402344
2025-08-10 18:48:21.031042,3.437605142593384,197.99578857421875
2025-08-10 18:48:21.031542,70.5560073852539,197.4548797607422
2025-08-10 18:48:21.032042,63.22557067871094,193.20518493652344
2025-08-10 18:48:21.048335,28.650461196899414,188.63844299316406
2025-08-10 18:48:21.048835,7.977806091308594,187.2052459716797
2025-08-10 18:48:21.049335,-23.140657424926758,189.7222900390625
2025-08-10 18:48:21.049835,-71.20828247070312,193.6592559814453
2025-08-10 18:48:21.050335,-110.88526916503906,195.75050354003906
2025-08-10 18:48:21.050835,-83.84629821777344,194.56423950195312
2025-08-10 18:48:21.051335,24.30325698852539,196.66673278808594
2025-08-10 18:48:21.051835,77.59306335449219,196.69500732421875
2025-08-10 18:48:21.068329,49.90354919433594,192.77880859375
2025-08-10 18:48:21.068829,21.208951950073242,190.26666259765625
2025-08-10 18:48:21.069329,-16.13880157470703,191.21347045898438
2025-08-10 18:48:21.069829,-55.70472717285156,194.75262451171875
2025-08-10 18:48:21.070329,-89.72478485107422,197.7361602783203
2025-08-10 18:48:21.070829,-80.06856536865234,197.8553009033203
2025-08-10 18:48:21.071329,8.925195693969727,197.897705078125
2025-08-10 18:48:21.071829,77.79442596435547,197.9559783935547
2025-08-10 18:48:21.088344,58.47506332397461,193.61570739746094
2025-08-10 18:48:21.088844,29.384946823120117,190.42100524902344
2025-08-10 18:48:21.089344,1.5278245210647583,190.93911743164062
2025-08-10 18:48:21.089844,-37.03214645385742,193.8897705078125
2025-08-10 18:48:21.090344,-85.82733154296875,197.27976989746094
2025-08-10 18:48:21.090844,-106.21467590332031,198.9795379638672
2025-08-10 18:48:21.091344,-49.18031311035156,198.73663330078125
2025-08-10 18:48:21.091844,57.407371520996094,198.1761016845703
2025-08-10 18:48:21.094613,71.14134979248047,195.76116943359375
2025-08-10 18:48:21.095113,38.17369079589844,191.91075134277344
2025-08-10 18:48:21.095613,11.38685131072998,190.79141235351562
2025-08-10 18:48:21.096113,-24.31854820251465,193.46279907226562
2025-08-10 18:48:21.096613,-73.4007797241211,197.12196350097656
2025-08-10 18:48:21.097113,-111.5340805053711,199.59141540527344
2025-08-10 18:48:21.097613,-80.03654479980469,200.27166748046875
2025-08-10 18:48:21.098113,29.753055572509766,199.9142303466797
2025-08-10 18:48:21.108341,78.63738250732422,197.7142333984375
2025-08-10 18:48:21.108841,49.71141815185547,193.34625244140625
2025-08-10 18:48:21.109341,21.860065460205078,191.34963989257812
2025-08-10 18:48:21.109841,-10.416959762573242,192.93948364257812
2025-08-10 18:48:21.110341,-56.708946228027344,196.36497497558594
2025-08-10 18:48:21.110841,-97.0082015991211,199.4930419921875
2025-08-10 18:48:21.111341,-83.57425689697266,200.34840393066406
2025-08-10 18:48:21.111841,9.524382591247559,199.6857452392578
2025-08-10 18:48:21.128383,73.8311996459961,198.1711883544922
2025-08-10 18:48:21.128883,57.01878356933594,194.28585815429688
2025-08-10 18:48:21.129383,28.368032455444336,191.08885192871094
2025-08-10 18:48:21.129883,-3.7439780235290527,191.34530639648438
2025-08-10 18:48:21.130383,-51.53840255737305,194.7001190185547
2025-08-10 18:48:21.130883,-106.1108169555664,198.18359375
2025-08-10 18:48:21.131383,-122.04854583740234,199.82479858398438
2025-08-10 18:48:21.131883,-53.041996002197266,200.20559692382812
2025-08-10 18:48:21.148329,60.04039001464844,199.39321899414062
2025-08-10 18:48:21.148829,74.7061767578125,196.83319091796875
2025-08-10 18:48:21.149329,41.07182312011719,193.2576904296875
2025-08-10 18:48:21.149829,12.854381561279297,192.43751525878906
2025-08-10 18:48:21.150329,-22.813800811767578,194.90379333496094
2025-08-10 18:48:21.150829,-67.33159637451172,198.29611206054688
2025-08-10 18:48:21.151329,-91.77217102050781,200.31002807617188
2025-08-10 18:48:21.151829,-44.349609375,200.8128662109375
2025-08-10 18:48:21.168329,46.2014045715332,200.05328369140625
2025-08-10 18:48:21.168829,70.05461883544922,197.33688354492188
2025-08-10 18:48:21.169329,40.23780822753906,192.47012329101562
2025-08-10 18:48:21.169829,15.916666030883789,190.49456787109375
2025-08-10 18:48:21.170329,-12.062774658203125,192.07835388183594
2025-08-10 18:48:21.170829,-44.244022369384766,195.43057250976562
2025-08-10 18:48:21.171329,-57.853084564208984,197.916748046875
2025-08-10 18:48:21.171829,-24.287391662597656,198.11407470703125
2025-08-10 18:48:21.188774,14.31008529663086,194.2821044921875
2025-08-10 18:48:21.189274,73.01795196533203,194.31527709960938
2025-08-10 18:48:21.189774,60.48927307128906,192.45973205566406
2025-08-10 18:48:21.190274,28.554683685302734,189.035400390625
2025-08-10 18:48:21.190774,8.331778526306152,188.98866271972656
2025-08-10 18:48:21.191274,-17.629409790039062,191.7549591064453
2025-08-10 18:48:21.191774,-47.37092590332031,195.31085205078125
2025-08-10 18:48:21.192274,-49.26311111450195,197.6732635498047
2025-08-10 18:48:21.194613,1.272802472114563,197.74510192871094
2025-08-10 18:48:21.195113,63.86341094970703,196.22189331054688
2025-08-10 18:48:21.195613,70.1604995727539,193.9474639892578
2025-08-10 18:48:21.196113,41.06720733642578,190.5542755126953
2025-08-10 18:48:21.196613,18.09848976135254,189.60256958007812
2025-08-10 18:48:21.197113,-7.097345352172852,191.3121337890625
2025-08-10 18:48:21.197613,-30.351377487182617,194.27980041503906
2025-08-10 18:48:21.198113,-43.73368835449219,196.9407958984375
2025-08-10 18:48:21.208352,-13.519054412841797,197.93405151367188
2025-08-10 18:48:21.208852,47.953094482421875,196.97166442871094
2025-08-10 18:48:21.209352,72.38558959960938,194.0213165283203
2025-08-10 18:48:21.209852,49.63093185424805,190.61111450195312
2025-08-10 18:48:21.210352,27.27178382873535,189.1029052734375
2025-08-10 18:48:21.210852,5.916281223297119,189.93316650390625
2025-08-10 18:48:21.211352,-19.001163482666016,192.24510192871094
2025-08-10 18:48:21.211852,-48.08464431762695,194.86109924316406
2025-08-10 18:48:21.228569,-36.89078903198242,194.837158203125
2025-08-10 18:48:21.229069,22.812936782836914,194.34759521484375
2025-08-10 18:48:21.229569,71.26482391357422,194.96725463867188
2025-08-10 18:48:21.230069,61.83131408691406,192.29327392578125
2025-08-10 18:48:21.230569,36.42546081542969,190.36302185058594
2025-08-10 18:48:21.231069,16.001192092895508,190.85488891601562
2025-08-10 18:48:21.231569,-6.336894512176514,193.25941467285156
2025-08-10 18:48:21.232069,-34.137474060058594,196.14254760742188
2025-08-10 18:48:21.248454,-34.97408676147461,197.30862426757812
2025-08-10 18:48:21.248954,5.800309658050537,196.8856964111328
2025-08-10 18:48:21.249454,60.609283447265625,195.53067016601562
2025-08-10 18:48:21.249954,67.61431121826172,193.45298767089844
2025-08-10 18:48:21.250454,41.784385681152344,191.05076599121094
2025-08-10 18:48:21.250954,20.67755889892578,190.33705139160156
2025-08-10 18:48:21.251454,-1.996903657913208,191.9987335205078
2025-08-10 18:48:21.251954,-32.87332534790039,194.9205322265625
2025-08-10 18:48:21.268483,-47.86798858642578,196.87069702148438
2025-08-10 18:48:21.268983,-10.445231437683105,196.86578369140625
2025-08-10 18:48:21.269483,49.98345947265625,196.18179321289062
2025-08-10 18:48:21.269983,67.93309020996094,194.75233459472656
2025-08-10 18:48:21.270483,48.51247024536133,191.57177734375
2025-08-10 18:48:21.270983,27.970497131347656,190.32435607910156
2025-08-10 18:48:21.271483,6.928868770599365,191.32945251464844
2025-08-10 18:48:21.271983,-15.638565063476562,194.11795043945312
2025-08-10 18:48:21.288739,-35.56144332885742,196.44546508789062
2025-08-10 18:48:21.289239,-18.681808471679688,197.0758056640625
2025-08-10 18:48:21.289739,36.41276550292969,196.2605438232422
2025-08-10 18:48:21.290239,72.6008071899414,195.25863647460938
2025-08-10 18:48:21.290739,56.73664093017578,191.7999725341797
2025-08-10 18:48:21.291239,29.724496841430664,189.48573303222656
2025-08-10 18:48:21.291739,12.016328811645508,190.3131103515625
2025-08-10 18:48:21.292239,-9.070303916931152,192.9969024658203
2025-08-10 18:48:21.294761,-35.197086334228516,195.67001342773438
2025-08-10 18:48:21.295261,-33.20162582397461,196.8502197265625
2025-08-10 18:48:21.295761,14.225847244262695,196.8086700439453
2025-08-10 18:48:21.296261,66.351318359375,196.03639221191406
2025-08-10 18:48:21.296761,67.18071746826172,192.88438415527344
2025-08-10 18:48:21.297261,40.468597412109375,189.89393615722656
2025-08-10 18:48:21.297761,19.439374923706055,189.6155548095703
2025-08-10 18:48:21.298261,-5.892048358917236,192.0471954345703
2025-08-10 18:48:21.308477,-35.40104675292969,195.13458251953125
2025-08-10 18:48:21.308977,-43.57761764526367,196.7581787109375
2025-08-10 18:48:21.309477,-3.4540488719940186,196.46104431152344
2025-08-10 18:48:21.309977,56.080623626708984,195.44557189941406
2025-08-10 18:48:21.310477,75.09765625,194.3689422607422
2025-08-10 18:48:21.310977,51.05951690673828,191.46388244628906
2025-08-10 18:48:21.311477,28.638343811035156,190.22483825683594
2025-08-10 18:48:21.311977,6.768758773803711,191.80429077148438
2025-08-10 18:48:21.328826,-16.58076286315918,194.13902282714844
2025-08-10 18:48:21.329326,-40.63678741455078,196.76885986328125
2025-08-10 18:48:21.329826,-26.564414978027344,198.3082275390625
2025-08-10 18:48:21.330326,27.021953582763672,197.76010131835938
2025-08-10 18:48:21.330826,67.50497436523438,195.67001342773438
2025-08-10 18:48:21.331326,55.82675552368164,192.06422424316406
2025-08-10 18:48:21.331826,33.264225006103516,189.90403747558594
2025-08-10 18:48:21.332326,13.448952674865723,190.83412170410156
2025-08-10 18:48:21.348387,-10.155879020690918,193.5242462158203
2025-08-10 18:48:21.348887,-37.131385803222656,196.1693878173828
2025-08-10 18:48:21.349387,-36.22351837158203,197.57431030273438
2025-08-10 18:48:21.349887,11.873527526855469,197.77134704589844
2025-08-10 18:48:21.350387,62.941410064697266,195.95359802246094
2025-08-10 18:48:21.350887,65.43104553222656,192.9045867919922
2025-08-10 18:48:21.351387,40.21444320678711,190.30792236328125
2025-08-10 18:48:21.351887,19.56659698486328,189.92250061035156
2025-08-10 18:48:21.368614,-4.930811405181885,192.44300842285156
2025-08-10 18:48:21.369114,-36.426326751708984,195.37893676757812
2025-08-10 18:48:21.369614,-47.49641799926758,197.44017028808594
2025-08-10 18:48:21.370114,-6.466424942016602,198.00387573242188
2025-08-10 18:48:21.370614,54.160457611083984,196.6292266845703
2025-08-10 18:48:21.371114,66.22178649902344,194.4237518310547
2025-08-10 18:48:21.371614,46.56201171875,191.147705078125
2025-08-10 18:48:21.372114,26.880884170532227,189.60256958007812
2025-08-10 18:48:21.388588,5.585964202880859,191.15895080566406
2025-08-10 18:48:21.389088,-20.084718704223633,194.35537719726562
2025-08-10 18:48:21.389588,-43.65118408203125,197.24139404296875
2025-08-10 18:48:21.390088,-27.619409561157227,198.34774780273438
2025-08-10 18:48:21.390588,30.12405014038086,197.6184539794922
2025-08-10 18:48:21.391088,68.87413787841797,195.09506225585938
2025-08-10 18:48:21.391588,47.34438705444336,191.54061889648438
2025-08-10 18:48:21.392088,25.248628616333008,189.24513244628906
2025-08-10 18:48:21.394477,5.964169979095459,189.940673828125
2025-08-10 18:48:21.394977,-26.07889175415039,193.0531463623047
2025-08-10 18:48:21.395477,-50.15049362182617,196.1916046142578
2025-08-10 18:48:21.395977,-39.65016174316406,197.9580078125
2025-08-10 18:48:21.396477,13.494821548461914,197.5538330078125
2025-08-10 18:48:21.396977,67.98126983642578,196.7607879638672
2025-08-10 18:48:21.397477,66.23938751220703,193.4319305419922
2025-08-10 18:48:21.397977,39.14531326293945,190.4247589111328
2025-08-10 18:48:21.407718,28.62882423400879,190.24473571777344
2025-08-10 18:48:21.408218,7.375734806060791,191.8126678466797
2025-08-10 18:48:21.408718,-20.64582633972168,194.2431640625
2025-08-10 18:48:21.409218,-39.42629623413086,197.66720581054688
2025-08-10 18:48:21.409718,-16.32227897644043,199.1341552734375
2025-08-10 18:48:21.410218,40.75218200683594,198.6587371826172
2025-08-10 18:48:21.410718,72.05758666992188,195.74386596679688
2025-08-10 18:48:21.411218,56.70375442504883,191.91940307617188
2025-08-10 18:48:21.428626,34.56760787963867,190.0373077392578
2025-08-10 18:48:21.429126,12.797550201416016,191.19068908691406
2025-08-10 18:48:21.429626,-16.739429473876953,194.14450073242188
2025-08-10 18:48:21.430126,-38.24725341796875,197.17822265625
2025-08-10 18:48:21.430626,-29.708051681518555,198.7747039794922
2025-08-10 18:48:21.431126,17.072343826293945,198.77989196777344
2025-08-10 18:48:21.431626,65.32575225830078,196.71145629882812
2025-08-10 18:48:21.432126,57.95722961425781,192.81658935546875
2025-08-10 18:48:21.448352,34.98418045043945,190.13308715820312
2025-08-10 18:48:21.448852,17.56969451904297,190.34426879882812
2025-08-10 18:48:21.449352,-4.367397308349609,192.95132446289062
2025-08-10 18:48:21.449852,-33.95745849609375,196.0906219482422
2025-08-10 18:48:21.450352,-41.69178009033203,198.14002990722656
