Timestamp,EMG3
2025-08-17 01:27:00.051881,0.0
2025-08-17 01:27:00.052881,0.0
2025-08-17 01:27:00.053881,0.0
2025-08-17 01:27:00.054881,0.0
2025-08-17 01:27:00.055881,0.0
2025-08-17 01:27:00.056881,0.0
2025-08-17 01:27:00.057881,0.0
2025-08-17 01:27:00.058881,0.0
2025-08-17 01:27:00.059881,0.0
2025-08-17 01:27:00.060881,0.0
2025-08-17 01:27:00.061881,0.0
2025-08-17 01:27:00.062881,0.0
2025-08-17 01:27:00.063881,0.0
2025-08-17 01:27:00.064881,0.0
2025-08-17 01:27:00.065881,0.0
2025-08-17 01:27:00.066881,0.0
2025-08-17 01:27:00.067881,0.0
2025-08-17 01:27:00.068881,0.0
2025-08-17 01:27:00.069881,0.0
2025-08-17 01:27:00.070881,0.0
2025-08-17 01:27:00.071881,0.0
2025-08-17 01:27:00.072881,0.0
2025-08-17 01:27:00.073881,0.0
2025-08-17 01:27:00.074881,0.0
2025-08-17 01:27:00.075881,0.0
2025-08-17 01:27:00.076881,0.0
2025-08-17 01:27:00.077881,0.0
2025-08-17 01:27:00.078881,0.0
2025-08-17 01:27:00.079881,0.0
2025-08-17 01:27:00.080881,0.0
2025-08-17 01:27:00.081881,0.0
2025-08-17 01:27:00.082881,0.0
2025-08-17 01:27:00.083881,0.0
2025-08-17 01:27:00.084881,0.0
2025-08-17 01:27:00.085881,0.0
2025-08-17 01:27:00.086881,0.0
2025-08-17 01:27:00.087881,0.0
2025-08-17 01:27:00.088881,0.0
2025-08-17 01:27:00.089881,0.0
2025-08-17 01:27:00.090881,0.0
2025-08-17 01:27:00.091881,0.0
2025-08-17 01:27:00.092881,0.0
2025-08-17 01:27:00.093881,0.0
2025-08-17 01:27:00.094881,0.0
2025-08-17 01:27:00.095881,0.0
2025-08-17 01:27:00.096881,0.0
2025-08-17 01:27:00.097881,0.0
2025-08-17 01:27:00.098881,0.0
2025-08-17 01:27:00.099881,0.0
2025-08-17 01:27:00.100881,0.0
2025-08-17 01:27:00.101881,0.0
2025-08-17 01:27:00.101881,0.0
2025-08-17 01:27:00.102881,0.0
2025-08-17 01:27:00.103881,0.0
2025-08-17 01:27:00.104881,0.0
2025-08-17 01:27:00.105881,0.0
2025-08-17 01:27:00.106881,0.0
2025-08-17 01:27:00.107881,0.0
2025-08-17 01:27:00.108881,0.0
2025-08-17 01:27:00.109881,0.0
2025-08-17 01:27:00.110881,0.0
2025-08-17 01:27:00.111881,0.0
2025-08-17 01:27:00.112881,0.0
2025-08-17 01:27:00.113881,0.0
2025-08-17 01:27:00.114881,0.0
2025-08-17 01:27:00.115881,0.0
2025-08-17 01:27:00.116881,0.0
2025-08-17 01:27:00.117881,0.0
2025-08-17 01:27:00.118881,0.0
2025-08-17 01:27:00.119881,0.0
2025-08-17 01:27:00.120881,0.0
2025-08-17 01:27:00.121881,0.0
2025-08-17 01:27:00.122881,0.0
2025-08-17 01:27:00.123881,0.0
2025-08-17 01:27:00.124881,0.0
2025-08-17 01:27:00.125881,0.0
2025-08-17 01:27:00.126881,0.0
2025-08-17 01:27:00.127881,0.0
2025-08-17 01:27:00.128881,0.0
2025-08-17 01:27:00.129881,0.0
2025-08-17 01:27:00.130881,0.0
2025-08-17 01:27:00.131881,0.0
2025-08-17 01:27:00.132881,0.0
2025-08-17 01:27:00.133881,0.0
2025-08-17 01:27:00.134881,0.0
2025-08-17 01:27:00.135881,0.0
2025-08-17 01:27:00.136881,0.0
2025-08-17 01:27:00.137881,0.0
2025-08-17 01:27:00.138881,0.0
2025-08-17 01:27:00.139881,0.0
2025-08-17 01:27:00.140881,0.0
2025-08-17 01:27:00.141881,0.0
2025-08-17 01:27:00.142881,0.0
2025-08-17 01:27:00.143881,0.0
2025-08-17 01:27:00.144881,0.0
2025-08-17 01:27:00.145881,0.0
2025-08-17 01:27:00.146881,0.0
2025-08-17 01:27:00.147881,0.0
2025-08-17 01:27:00.148881,0.0
2025-08-17 01:27:00.149881,0.0
2025-08-17 01:27:00.150881,0.0
2025-08-17 01:27:00.151881,0.0
2025-08-17 01:27:00.151881,0.0
2025-08-17 01:27:00.152881,0.0
2025-08-17 01:27:00.153881,0.0
2025-08-17 01:27:00.154881,0.0
2025-08-17 01:27:00.155881,0.0
2025-08-17 01:27:00.156881,0.0
2025-08-17 01:27:00.157881,0.0
2025-08-17 01:27:00.158881,0.0
2025-08-17 01:27:00.159881,0.0
2025-08-17 01:27:00.160881,0.0
2025-08-17 01:27:00.161881,0.0
2025-08-17 01:27:00.162881,0.0
2025-08-17 01:27:00.163881,0.0
2025-08-17 01:27:00.164881,0.0
2025-08-17 01:27:00.165881,0.0
2025-08-17 01:27:00.166881,0.0
2025-08-17 01:27:00.167881,0.0
2025-08-17 01:27:00.168881,0.0
2025-08-17 01:27:00.169881,0.0
2025-08-17 01:27:00.170881,0.0
2025-08-17 01:27:00.171881,0.0
2025-08-17 01:27:00.172881,0.0
2025-08-17 01:27:00.173881,0.0
2025-08-17 01:27:00.174881,0.0
2025-08-17 01:27:00.175881,0.0
2025-08-17 01:27:00.176881,0.0
2025-08-17 01:27:00.177881,0.0
2025-08-17 01:27:00.178881,0.0
2025-08-17 01:27:00.179881,0.0
2025-08-17 01:27:00.180881,0.0
2025-08-17 01:27:00.181881,0.0
2025-08-17 01:27:00.182881,0.0
2025-08-17 01:27:00.183881,0.0
2025-08-17 01:27:00.184881,0.0
2025-08-17 01:27:00.185881,0.0
2025-08-17 01:27:00.186881,0.0
2025-08-17 01:27:00.187881,0.0
2025-08-17 01:27:00.188881,0.0
2025-08-17 01:27:00.189881,0.0
2025-08-17 01:27:00.190881,0.0
2025-08-17 01:27:00.191881,0.0
2025-08-17 01:27:00.192881,0.0
2025-08-17 01:27:00.193881,0.0
2025-08-17 01:27:00.194881,0.0
2025-08-17 01:27:00.195881,0.0
2025-08-17 01:27:00.196881,0.0
2025-08-17 01:27:00.197881,0.0
2025-08-17 01:27:00.198881,0.0
2025-08-17 01:27:00.199881,0.0
2025-08-17 01:27:00.200881,0.0
2025-08-17 01:27:00.201881,0.0
2025-08-17 01:27:00.201881,0.0
2025-08-17 01:27:00.202881,0.0
2025-08-17 01:27:00.203881,0.0
2025-08-17 01:27:00.204881,0.0
2025-08-17 01:27:00.205881,0.0
2025-08-17 01:27:00.206881,0.0
2025-08-17 01:27:00.207881,0.0
2025-08-17 01:27:00.208881,0.0
2025-08-17 01:27:00.209881,0.0
2025-08-17 01:27:00.210881,0.0
2025-08-17 01:27:00.211881,0.0
2025-08-17 01:27:00.212881,0.0
2025-08-17 01:27:00.213881,0.0
2025-08-17 01:27:00.214881,0.0
2025-08-17 01:27:00.215881,0.0
2025-08-17 01:27:00.216881,0.0
2025-08-17 01:27:00.217881,0.0
2025-08-17 01:27:00.218881,0.0
2025-08-17 01:27:00.219881,0.0
2025-08-17 01:27:00.220881,0.0
2025-08-17 01:27:00.221881,0.0
2025-08-17 01:27:00.222881,0.0
2025-08-17 01:27:00.223881,0.0
2025-08-17 01:27:00.224881,0.0
2025-08-17 01:27:00.225881,0.0
2025-08-17 01:27:00.226881,0.0
2025-08-17 01:27:00.227881,0.0
2025-08-17 01:27:00.228881,0.0
2025-08-17 01:27:00.229881,0.0
2025-08-17 01:27:00.230881,0.0
2025-08-17 01:27:00.231881,0.0
2025-08-17 01:27:00.232881,0.0
2025-08-17 01:27:00.233881,0.0
2025-08-17 01:27:00.234881,0.0
2025-08-17 01:27:00.235881,0.0
2025-08-17 01:27:00.236881,0.0
2025-08-17 01:27:00.237881,0.0
2025-08-17 01:27:00.238881,0.0
2025-08-17 01:27:00.239881,0.0
2025-08-17 01:27:00.240881,0.0
2025-08-17 01:27:00.241881,0.0
2025-08-17 01:27:00.242881,0.0
2025-08-17 01:27:00.243881,0.0
2025-08-17 01:27:00.244881,0.0
2025-08-17 01:27:00.245881,0.0
2025-08-17 01:27:00.246881,0.0
2025-08-17 01:27:00.247881,0.0
2025-08-17 01:27:00.248881,0.0
2025-08-17 01:27:00.249881,0.0
2025-08-17 01:27:00.250881,0.0
2025-08-17 01:27:00.251881,0.0
2025-08-17 01:27:00.251881,0.0
2025-08-17 01:27:00.252881,0.0
2025-08-17 01:27:00.253881,0.0
2025-08-17 01:27:00.254881,0.0
2025-08-17 01:27:00.255881,0.0
2025-08-17 01:27:00.256881,0.0
2025-08-17 01:27:00.257881,0.0
2025-08-17 01:27:00.258881,0.0
2025-08-17 01:27:00.259881,0.0
2025-08-17 01:27:00.260881,0.0
2025-08-17 01:27:00.261881,0.0
2025-08-17 01:27:00.262881,0.0
2025-08-17 01:27:00.263881,0.0
2025-08-17 01:27:00.264881,0.0
2025-08-17 01:27:00.265881,0.0
2025-08-17 01:27:00.266881,0.0
2025-08-17 01:27:00.267881,0.0
2025-08-17 01:27:00.268881,0.0
2025-08-17 01:27:00.269881,0.0
2025-08-17 01:27:00.270881,0.0
2025-08-17 01:27:00.271881,0.0
2025-08-17 01:27:00.272881,0.0
2025-08-17 01:27:00.273881,0.0
2025-08-17 01:27:00.274881,0.0
2025-08-17 01:27:00.275881,0.0
2025-08-17 01:27:00.276881,0.0
2025-08-17 01:27:00.277881,0.0
2025-08-17 01:27:00.278881,0.0
2025-08-17 01:27:00.279881,0.0
2025-08-17 01:27:00.280881,0.0
2025-08-17 01:27:00.281881,0.0
2025-08-17 01:27:00.282881,0.0
2025-08-17 01:27:00.283881,0.0
2025-08-17 01:27:00.284881,0.0
2025-08-17 01:27:00.285881,0.0
2025-08-17 01:27:00.286881,0.0
2025-08-17 01:27:00.287881,0.0
2025-08-17 01:27:00.288881,0.0
2025-08-17 01:27:00.289881,0.0
2025-08-17 01:27:00.290881,0.0
2025-08-17 01:27:00.291881,0.0
2025-08-17 01:27:00.292881,0.0
2025-08-17 01:27:00.293881,0.0
2025-08-17 01:27:00.294881,0.0
2025-08-17 01:27:00.295881,0.0
2025-08-17 01:27:00.296881,0.0
2025-08-17 01:27:00.297881,0.0
2025-08-17 01:27:00.298881,5.2992545533925295e-06
2025-08-17 01:27:00.299881,-2.890501491492614e-06
2025-08-17 01:27:00.300881,-8.731725756661035e-06
2025-08-17 01:27:00.301881,-1.3344486433197744e-05
2025-08-17 01:27:00.301881,-2.0889234292553738e-05
2025-08-17 01:27:00.302881,-2.40989938902203e-05
2025-08-17 01:27:00.303881,-2.6847552362596616e-05
2025-08-17 01:27:00.304881,-1.8583079508971423e-05
2025-08-17 01:27:00.305881,-1.983205947908573e-06
2025-08-17 01:27:00.306881,2.649627958817291e-06
2025-08-17 01:27:00.307881,6.550468242494389e-06
2025-08-17 01:27:00.308881,1.738625178404618e-05
2025-08-17 01:27:00.309881,-1.0782032404677011e-06
2025-08-17 01:27:00.310881,-4.829280806006864e-05
2025-08-17 01:27:00.311881,-7.929813727969304e-05
2025-08-17 01:27:00.312881,1.8542670659371652e-05
2025-08-17 01:27:00.313881,5.7551340432837605e-05
2025-08-17 01:27:00.314881,4.235178494127467e-05
2025-08-17 01:27:00.315881,2.91740052489331e-05
2025-08-17 01:27:00.316881,1.7690948880044743e-05
2025-08-17 01:27:00.317881,7.689759513596073e-06
2025-08-17 01:27:00.318881,-1.0158652230529697e-06
2025-08-17 01:27:00.319881,-8.591217010689434e-06
2025-08-17 01:27:00.320881,-2.913627031375654e-05
2025-08-17 01:27:00.321881,3.7150368825678015e-06
2025-08-17 01:27:00.322881,-2.1440876025735633e-06
2025-08-17 01:27:00.323881,3.1973313525668345e-06
2025-08-17 01:27:00.324881,1.7351323549519293e-05
2025-08-17 01:27:00.325881,1.2426485227479134e-05
2025-08-17 01:27:00.326881,2.391398993495386e-05
2025-08-17 01:27:00.327881,3.390068013686687e-05
2025-08-17 01:27:00.328881,2.306319584022276e-05
2025-08-17 01:27:00.329881,1.9423518097028136e-05
2025-08-17 01:27:00.330881,-2.1768240912933834e-05
2025-08-17 01:27:00.331881,-3.7558704661933007e-06
2025-08-17 01:27:00.332881,-8.96663641469786e-06
2025-08-17 01:27:00.333881,-3.961764377891086e-06
2025-08-17 01:27:00.334881,-1.7003321772790514e-05
2025-08-17 01:27:00.335881,-2.8555761673487723e-05
2025-08-17 01:27:00.336881,-2.4255941752926446e-05
2025-08-17 01:27:00.337881,-2.697037962207105e-05
2025-08-17 01:27:00.338881,-1.1364083547960036e-05
2025-08-17 01:27:00.339881,-8.43793350213673e-06
2025-08-17 01:27:00.340881,-3.054655098821968e-05
2025-08-17 01:27:00.341881,-2.7840296752401628e-06
2025-08-17 01:27:00.342881,3.0044489903957583e-05
2025-08-17 01:27:00.343881,3.3821226679719985e-05
2025-08-17 01:27:00.344881,2.9119688406353816e-05
2025-08-17 01:27:00.345881,1.0360847227275372e-05
2025-08-17 01:27:00.346881,6.85156282997923e-06
2025-08-17 01:27:00.347881,-2.257433152408339e-06
2025-08-17 01:27:00.348881,5.899170446355129e-06
2025-08-17 01:27:00.349881,-1.1547143003554083e-05
2025-08-17 01:27:00.350881,-1.8037906556855887e-05
2025-08-17 01:27:00.351881,-1.9766106561291963e-05
2025-08-17 01:27:00.351881,-2.8096477763028815e-05
2025-08-17 01:27:00.352881,-3.69231311196927e-05
2025-08-17 01:27:00.353881,-2.445768222969491e-05
2025-08-17 01:27:00.354881,-7.0750402301200666e-06
2025-08-17 01:27:00.355881,-9.170369594357908e-06
2025-08-17 01:27:00.356881,1.2471142554204562e-06
2025-08-17 01:27:00.357881,2.177180977014359e-05
2025-08-17 01:27:00.358881,1.874436202342622e-05
2025-08-17 01:27:00.359881,2.090673842758406e-05
2025-08-17 01:27:00.360881,9.282213795813732e-06
2025-08-17 01:27:00.361881,-2.1781830582767725e-05
2025-08-17 01:27:00.362881,-8.799385250313208e-05
2025-08-17 01:27:00.363881,-2.017184488067869e-05
2025-08-17 01:27:00.364881,5.8073877880815417e-05
2025-08-17 01:27:00.365881,2.5829065634752624e-05
2025-08-17 01:27:00.366881,1.5969138985383324e-05
2025-08-17 01:27:00.367881,7.118471330613829e-06
2025-08-17 01:27:00.368881,1.4863741853332613e-05
2025-08-17 01:27:00.369881,-6.803384621889563e-06
2025-08-17 01:27:00.370881,-2.165733832271144e-07
2025-08-17 01:27:00.371881,5.650664661516203e-06
2025-08-17 01:27:00.372881,1.0968061360472348e-05
2025-08-17 01:27:00.373881,2.5415898562641814e-05
2025-08-17 01:27:00.374881,2.9538334274548106e-05
2025-08-17 01:27:00.375881,3.321798794786446e-05
2025-08-17 01:27:00.376881,2.9164511943235993e-05
2025-08-17 01:27:00.377881,2.548150769143831e-05
2025-08-17 01:27:00.378881,1.002500175673049e-05
2025-08-17 01:27:00.379881,7.209257091744803e-06
2025-08-17 01:27:00.380881,9.585530278855003e-06
2025-08-17 01:27:00.381881,-1.8743936607279466e-06
2025-08-17 01:27:00.382881,-3.916957211913541e-06
2025-08-17 01:27:00.383881,-2.0782930732821114e-05
2025-08-17 01:27:00.384881,-3.190615461790003e-05
2025-08-17 01:27:00.385881,-2.1232312064967118e-05
2025-08-17 01:27:00.386881,-2.6560857804724947e-05
2025-08-17 01:27:00.387881,-1.0866148841159884e-05
2025-08-17 01:27:00.388881,-1.2815928130294196e-05
2025-08-17 01:27:00.389881,-3.306328153485083e-06
2025-08-17 01:27:00.390881,8.646418791613542e-06
2025-08-17 01:27:00.391881,1.0067098628496751e-05
2025-08-17 01:27:00.392881,2.832250902429223e-05
2025-08-17 01:27:00.392881,2.0565232262015343e-05
2025-08-17 01:27:00.393881,1.360303122055484e-05
2025-08-17 01:27:00.394881,7.26759799363208e-06
2025-08-17 01:27:00.395881,-2.185192215620191e-06
2025-08-17 01:27:00.396881,2.9248049031593837e-06
2025-08-17 01:27:00.397881,-1.4200056284607854e-05
2025-08-17 01:27:00.398881,-1.6291574866045266e-05
2025-08-17 01:27:00.399881,-2.2341555450111628e-05
2025-08-17 01:27:00.400881,-1.6564859834033996e-05
2025-08-17 01:27:00.400881,-2.9377855753409676e-05
2025-08-17 01:27:00.401881,-2.7437676180852577e-05
2025-08-17 01:27:00.402881,-3.876627943100175e-06
2025-08-17 01:27:00.403881,-5.404936382547021e-05
2025-08-17 01:27:00.404881,-1.7598944396013394e-05
2025-08-17 01:27:00.405881,1.5264671674231067e-05
2025-08-17 01:27:00.406881,2.102024336636532e-05
2025-08-17 01:27:00.407881,3.7074543797643855e-05
2025-08-17 01:27:00.408881,-2.7083926397608593e-05
2025-08-17 01:27:00.409881,-0.00012269745639059693
2025-08-17 01:27:00.410881,-8.344421803485602e-05
2025-08-17 01:27:00.411881,4.480346979107708e-05
2025-08-17 01:27:00.412881,2.747048347373493e-05
2025-08-17 01:27:00.413881,1.1795589671237394e-05
2025-08-17 01:27:00.414881,2.5714422008604743e-05
2025-08-17 01:27:00.415881,1.2763124686898664e-05
2025-08-17 01:27:00.416881,1.1117839449070743e-06
2025-08-17 01:27:00.417881,-9.410833627043758e-06
2025-08-17 01:27:00.418881,2.2239686359171174e-07
2025-08-17 01:27:00.419881,8.90353385329945e-06
2025-08-17 01:27:00.420881,1.6720758139854297e-05
2025-08-17 01:27:00.421881,9.42089991440298e-06
2025-08-17 01:27:00.422881,2.894826502597425e-05
2025-08-17 01:27:00.423881,4.6495664719259366e-05
2025-08-17 01:27:00.424881,4.0724949940340593e-05
2025-08-17 01:27:00.425881,2.5756144168553874e-05
2025-08-17 01:27:00.426881,2.1101150196045637e-05
2025-08-17 01:27:00.427881,6.221131911843258e-07
2025-08-17 01:27:00.428881,1.1616329175012652e-05
2025-08-17 01:27:00.429881,-2.5372191885253415e-05
2025-08-17 01:27:00.430881,-1.0521708645683248e-05
2025-08-17 01:27:00.431881,-5.982022685202537e-06
2025-08-17 01:27:00.432881,-1.8136184735340066e-05
2025-08-17 01:27:00.433881,-1.4340332199935801e-05
2025-08-17 01:27:00.434881,-2.428486004646402e-05
2025-08-17 01:27:00.435881,-1.5025785614852794e-05
2025-08-17 01:27:00.436881,-1.221047841681866e-05
2025-08-17 01:27:00.437881,3.925994178644032e-07
2025-08-17 01:27:00.438881,7.1679637585475575e-06
2025-08-17 01:27:00.439881,1.7486123397247866e-05
2025-08-17 01:27:00.440881,2.2950422135181725e-05
2025-08-17 01:27:00.441881,2.7900576242245734e-05
2025-08-17 01:27:00.442881,1.05669296317501e-05
2025-08-17 01:27:00.443881,-9.087308967536956e-07
2025-08-17 01:27:00.444881,5.318801868270384e-06
2025-08-17 01:27:00.445881,3.4493978091632016e-06
2025-08-17 01:27:00.445881,-1.2048453754687216e-05
2025-08-17 01:27:00.446881,-1.404483919031918e-05
2025-08-17 01:27:00.447881,-2.3368500478682108e-05
2025-08-17 01:27:00.448881,-2.832559766829945e-05
2025-08-17 01:27:00.449881,-2.9662209271918982e-05
2025-08-17 01:27:00.449881,-2.564588976383675e-05
2025-08-17 01:27:00.450881,-1.567144317959901e-05
2025-08-17 01:27:00.451881,-3.924321390513796e-06
2025-08-17 01:27:00.452881,-5.416223757492844e-06
2025-08-17 01:27:00.453881,7.384869604720734e-06
2025-08-17 01:27:00.454881,2.282145942444913e-05
2025-08-17 01:27:00.455881,3.3057815016945824e-05
2025-08-17 01:27:00.456881,4.526810243987711e-06
2025-08-17 01:27:00.457881,-5.655568020301871e-05
2025-08-17 01:27:00.458881,-3.0040106139495037e-05
2025-08-17 01:27:00.459881,4.1573548514861614e-05
2025-08-17 01:27:00.460881,3.175066376570612e-05
2025-08-17 01:27:00.461881,2.286436574649997e-05
2025-08-17 01:27:00.462881,1.482876450609183e-05
2025-08-17 01:27:00.463881,7.5585621743812226e-06
2025-08-17 01:27:00.464881,9.69037614595436e-07
2025-08-17 01:27:00.465881,-4.94413734486443e-06
2025-08-17 01:27:00.466881,5.127719759911997e-07
2025-08-17 01:27:00.467881,5.380000402510632e-06
2025-08-17 01:27:00.468881,9.820853847486433e-06
2025-08-17 01:27:00.469881,5.693984803656349e-06
2025-08-17 01:27:00.470881,2.4106702767312527e-05
2025-08-17 01:27:00.471881,3.40343831339851e-05
2025-08-17 01:27:00.472881,3.08130620396696e-05
2025-08-17 01:27:00.473881,2.792968189169187e-05
2025-08-17 01:27:00.474881,2.027148184424732e-05
2025-08-17 01:27:00.475881,8.742250429349951e-06
2025-08-17 01:27:00.476881,-1.6865602674442925e-06
2025-08-17 01:27:00.477881,-1.8688228010432795e-05
2025-08-17 01:27:00.478881,-4.374618947622366e-05
2025-08-17 01:27:00.479881,-1.3245165973785333e-05
2025-08-17 01:27:00.480881,-1.7248781659873202e-05
2025-08-17 01:27:00.481881,-2.0832556401728652e-05
2025-08-17 01:27:00.482881,-3.078812369494699e-05
2025-08-17 01:27:00.483881,-9.301778845838271e-06
2025-08-17 01:27:00.484881,-1.0264110414937022e-06
2025-08-17 01:27:00.485881,1.455132746741583e-06
2025-08-17 01:27:00.486881,1.2870847967860755e-05
2025-08-17 01:27:00.487881,1.9036480807699263e-05
2025-08-17 01:27:00.488881,3.2121562981046736e-05
2025-08-17 01:27:00.489881,3.363780342624523e-05
2025-08-17 01:27:00.490881,1.6293201042572036e-05
2025-08-17 01:27:00.491881,4.787544185091974e-06
2025-08-17 01:27:00.492881,-1.4679101241199533e-06
2025-08-17 01:27:00.493881,4.1320568016089965e-06
2025-08-17 01:27:00.494881,-7.872922651586123e-06
2025-08-17 01:27:00.495881,-6.3164170569507405e-06
2025-08-17 01:27:00.496881,-2.1866642782697454e-05
2025-08-17 01:27:00.497881,-1.9683504433487542e-05
2025-08-17 01:27:00.498881,-3.6608795198844746e-05
2025-08-17 01:27:00.499881,-3.4196222259197384e-05
2025-08-17 01:27:00.499881,-1.3576572200690862e-05
2025-08-17 01:27:00.500881,-1.558991971251089e-05
2025-08-17 01:27:00.501881,1.5050894717205665e-06
2025-08-17 01:27:00.502881,8.290780897368677e-06
2025-08-17 01:27:00.503881,1.4485530300589744e-05
2025-08-17 01:27:00.504881,2.760467577900272e-05
2025-08-17 01:27:00.505881,1.8925433323602192e-05
2025-08-17 01:27:00.506881,4.77199318993371e-06
2025-08-17 01:27:00.507881,-2.362271879974287e-05
2025-08-17 01:27:00.508881,-8.465757127851248e-05
2025-08-17 01:27:00.509881,-2.304884219483938e-05
2025-08-17 01:27:00.510881,4.8591398808639497e-05
2025-08-17 01:27:00.511881,1.959769542736467e-05
2025-08-17 01:27:00.512881,1.0797256436489988e-05
2025-08-17 01:27:00.513881,2.8356578241073294e-06
2025-08-17 01:27:00.514881,-4.371085651655449e-06
2025-08-17 01:27:00.515881,2.2030460513633443e-06
2025-08-17 01:27:00.516881,8.108756446745247e-06
2025-08-17 01:27:00.517881,2.6372995307610836e-06
2025-08-17 01:27:00.518881,1.7334949006908573e-05
2025-08-17 01:27:00.519881,2.1736368580604903e-05
2025-08-17 01:27:00.520881,4.202803393127397e-05
2025-08-17 01:27:00.521881,3.816937532974407e-05
2025-08-17 01:27:00.522881,2.7932223019888625e-05
2025-08-17 01:27:00.523881,1.8698709027376026e-05
2025-08-17 01:27:00.524881,1.0384283086750656e-05
2025-08-17 01:27:00.525881,7.861783160478808e-06
2025-08-17 01:27:00.526881,1.0326089068257716e-06
2025-08-17 01:27:00.527881,-1.3523428606276866e-05
2025-08-17 01:27:00.528881,-7.869939508964308e-06
2025-08-17 01:27:00.529881,-3.3663323847576976e-05
2025-08-17 01:27:00.530881,-3.7201734812697396e-05
2025-08-17 01:27:00.531881,-6.743184258084511e-06
2025-08-17 01:27:00.532881,1.3674703950528055e-05
2025-08-17 01:27:00.533881,1.729694486130029e-05
2025-08-17 01:27:00.534881,2.058483187283855e-05
2025-08-17 01:27:00.535881,1.746247107803356e-05
2025-08-17 01:27:00.536881,3.674370964290574e-05
2025-08-17 01:27:00.537881,3.9074559026630595e-05
2025-08-17 01:27:00.538881,3.667849159683101e-05
2025-08-17 01:27:00.539881,2.1977131837047637e-05
2025-08-17 01:27:00.540881,1.6356709238607436e-05
2025-08-17 01:27:00.541881,7.765491318423301e-06
2025-08-17 01:27:00.542881,6.239948561415076e-06
2025-08-17 01:27:00.543881,-8.257248396148498e-07
2025-08-17 01:27:00.544881,-7.32935677660862e-06
2025-08-17 01:27:00.545881,-2.499354195606429e-05
2025-08-17 01:27:00.546881,-2.748258521023672e-05
2025-08-17 01:27:00.547881,-2.0657787899835967e-05
2025-08-17 01:27:00.548881,-2.69205429503927e-05
2025-08-17 01:27:00.549881,1.5830273696337827e-06
2025-08-17 01:27:00.549881,-2.13001203519525e-05
2025-08-17 01:27:00.550881,-9.01548355614068e-06
2025-08-17 01:27:00.551881,9.531910109217279e-06
2025-08-17 01:27:00.552881,-2.0898662114632316e-05
2025-08-17 01:27:00.553881,3.2334766729036346e-05
2025-08-17 01:27:00.554881,2.5108511181315407e-05
2025-08-17 01:27:00.555881,3.169243427691981e-05
2025-08-17 01:27:00.556881,-4.6270855818875134e-05
2025-08-17 01:27:00.557881,-0.00014197862765286118
2025-08-17 01:27:00.558881,-0.00010343858593842015
2025-08-17 01:27:00.559881,2.518880137358792e-05
2025-08-17 01:27:00.560881,4.229094338370487e-05
2025-08-17 01:27:00.561881,2.6714344130596146e-05
2025-08-17 01:27:00.562881,1.2582997442223132e-05
2025-08-17 01:27:00.563881,-2.6368255134912033e-07
2025-08-17 01:27:00.564881,1.1378620911273174e-05
2025-08-17 01:27:00.565881,2.1977131837047637e-05
2025-08-17 01:27:00.566881,1.2342121408437379e-05
2025-08-17 01:27:00.567881,3.5903212847188115e-06
2025-08-17 01:27:00.568881,2.7517260605236515e-05
2025-08-17 01:27:00.569881,2.0291005057515576e-05
2025-08-17 01:27:00.570881,2.687492815311998e-05
2025-08-17 01:27:00.571881,3.281651879660785e-05
2025-08-17 01:27:00.572881,2.7356680220691487e-05
2025-08-17 01:27:00.573881,1.2582997442223132e-05
2025-08-17 01:27:00.574881,-9.060168508767674e-07
2025-08-17 01:27:00.575881,3.188862137903925e-06
2025-08-17 01:27:00.576881,-5.045577040618809e-07
2025-08-17 01:27:00.577881,-1.736582453304436e-05
2025-08-17 01:27:00.578881,-1.4314739019027911e-05
2025-08-17 01:27:00.579881,-2.2584788894164376e-05
2025-08-17 01:27:00.580881,-2.507383396732621e-05
2025-08-17 01:27:00.581881,-1.824903483793605e-05
2025-08-17 01:27:00.582881,-1.1986277968389913e-05
2025-08-17 01:27:00.583881,-1.013956807582872e-05
2025-08-17 01:27:00.584881,-1.5483510651392862e-06
2025-08-17 01:27:00.585881,1.57143749675015e-05
2025-08-17 01:27:00.586881,2.2539174096891657e-05
2025-08-17 01:27:00.587881,1.627641722734552e-05
2025-08-17 01:27:00.588881,1.4429706425289623e-05
2025-08-17 01:27:00.589881,1.2743579645757563e-05
2025-08-17 01:27:00.590881,4.9552818381926045e-06
2025-08-17 01:27:00.591881,-7.89139903645264e-06
2025-08-17 01:27:00.592881,-1.3030070476816036e-05
2025-08-17 01:27:00.593881,-2.394974944763817e-05
2025-08-17 01:27:00.594881,-2.2584788894164376e-05
2025-08-17 01:27:00.595881,-1.8730785086518154e-05
2025-08-17 01:27:00.596881,-3.1657757062930614e-05
2025-08-17 01:27:00.597881,-3.3343883842462674e-05
2025-08-17 01:27:00.598881,-1.9212535335100256e-05
2025-08-17 01:27:00.599881,-5.964396677882178e-06
2025-08-17 01:27:00.599881,-7.489939889637753e-06
2025-08-17 01:27:00.600881,1.153920493379701e-05
2025-08-17 01:27:00.601881,1.9086630345555022e-05
2025-08-17 01:27:00.602881,2.1334799384931102e-05
2025-08-17 01:27:00.603881,2.3422384401783347e-05
2025-08-17 01:27:00.604881,1.7801959984353743e-05
2025-08-17 01:27:00.605881,1.266328945348505e-05
2025-08-17 01:27:00.606881,-1.0862193448701873e-05
2025-08-17 01:27:00.607881,-6.1526290664915e-05
2025-08-17 01:27:00.608881,-9.781816333997995e-05
2025-08-17 01:27:00.609881,1.181569132313598e-06
2025-08-17 01:27:00.610881,1.5312916730181314e-05
2025-08-17 01:27:00.611881,2.4662367650307715e-06
2025-08-17 01:27:00.612881,-9.176066669169813e-06
2025-08-17 01:27:00.613881,1.4224442566046491e-06
2025-08-17 01:27:00.614881,-8.212566172005609e-06
2025-08-17 01:27:00.615881,1.8123128029401414e-05
2025-08-17 01:27:00.616881,2.6072011678479612e-05
2025-08-17 01:27:00.617881,3.329826722620055e-05
2025-08-17 01:27:00.618881,3.9882190321804956e-05
2025-08-17 01:27:00.619881,4.5823780965292826e-05
2025-08-17 01:27:00.620881,2.9444265237543732e-05
2025-08-17 01:27:00.621881,2.4546468921471387e-05
2025-08-17 01:27:00.622881,1.1057454685214907e-05
2025-08-17 01:27:00.623881,1.5152332707657479e-05
2025-08-17 01:27:00.624881,-1.832932684919797e-05
2025-08-17 01:27:00.625881,-4.840312158194138e-06
2025-08-17 01:27:00.626881,-8.935191544878762e-06
2025-08-17 01:27:00.627881,-4.241685019223951e-05
2025-08-17 01:27:00.628881,-2.892783777497243e-05
2025-08-17 01:27:00.629881,-2.4832957933540456e-05
2025-08-17 01:27:00.630881,-1.3752696759183891e-05
2025-08-17 01:27:00.631881,-3.635936081991531e-06
2025-08-17 01:27:00.632881,-6.687022505502682e-06
2025-08-17 01:27:00.633881,7.203449058579281e-06
2025-08-17 01:27:00.634881,9.692494131741114e-06
2025-08-17 01:27:00.635881,3.0407765734707937e-05
2025-08-17 01:27:00.636881,2.767784462776035e-05
2025-08-17 01:27:00.637881,1.5072040696395561e-05
2025-08-17 01:27:00.638881,3.5903212847188115e-06
2025-08-17 01:27:00.639881,5.677906301571056e-06
2025-08-17 01:27:00.640881,7.5246171036269516e-06
2025-08-17 01:27:00.641881,-8.051982149481773e-06
2025-08-17 01:27:00.642881,-1.013956807582872e-05
2025-08-17 01:27:00.643881,-1.1986277968389913e-05
2025-08-17 01:27:00.644881,-1.712495031824801e-05
2025-08-17 01:27:00.645881,-2.804462747008074e-05
2025-08-17 01:27:00.646881,-3.511030081426725e-05
2025-08-17 01:27:00.647881,-1.8168742826674134e-05
2025-08-17 01:27:00.648881,-1.5920573787298054e-05
2025-08-17 01:27:00.649881,-1.3074750313535333e-06
2025-08-17 01:27:00.649881,1.4028248187969439e-05
2025-08-17 01:27:00.650881,1.9648672605399042e-05
2025-08-17 01:27:00.651881,2.4787343136267737e-05
2025-08-17 01:27:00.652881,2.631288589327596e-05
2025-08-17 01:27:00.653881,1.6437001249869354e-05
2025-08-17 01:27:00.654881,-5.045577040618809e-07
2025-08-17 01:27:00.655881,-1.1986277968389913e-05
2025-08-17 01:27:00.656881,-1.407386389473686e-05
2025-08-17 01:27:00.657881,-4.257743421476334e-05
2025-08-17 01:27:00.658881,-0.00010400062456028536
2025-08-17 01:27:00.659881,-4.249714402249083e-05
2025-08-17 01:27:00.660881,2.936397140729241e-05
2025-08-17 01:27:00.661881,4.589428215240332e-07
2025-08-17 01:27:00.662881,9.210743883159012e-06
2025-08-17 01:27:00.663881,1.715962753223721e-05
2025-08-17 01:27:00.664881,9.933370165526867e-06
2025-08-17 01:27:00.665881,1.6517293261131272e-05
2025-08-17 01:27:00.666881,2.2458880266640335e-05
2025-08-17 01:27:00.667881,1.6999043509713374e-05
2025-08-17 01:27:00.668881,3.1772724469192326e-05
2025-08-17 01:27:00.669881,4.5261738705448806e-05
2025-08-17 01:27:00.670881,3.297710281913169e-05
2025-08-17 01:27:00.671881,1.4429706425289623e-05
2025-08-17 01:27:00.672881,1.1057454685214907e-05
2025-08-17 01:27:00.673881,8.006367352209054e-06
2025-08-17 01:27:00.674881,-2.6368255134912033e-07
2025-08-17 01:27:00.675881,-2.752726686594542e-06
2025-08-17 01:27:00.676881,-1.4234447007765993e-05
2025-08-17 01:27:00.677881,-2.049720387731213e-05
2025-08-17 01:27:00.678881,-2.2343914679368027e-05
2025-08-17 01:27:00.679881,-1.3752696759183891e-05
2025-08-17 01:27:00.680881,-1.5278239516192116e-05
2025-08-17 01:27:00.681881,-2.4315595510415733e-06
2025-08-17 01:27:00.682881,6.159656550153159e-06
2025-08-17 01:27:00.683881,1.7079335520975292e-05
2025-08-17 01:27:00.684881,2.125450555467978e-05
2025-08-17 01:27:00.685881,3.0327471904456615e-05
2025-08-17 01:27:00.686881,1.266328945348505e-05
2025-08-17 01:27:00.687881,5.74845842038485e-08
2025-08-17 01:27:00.688881,2.305653652001638e-06
2025-08-17 01:27:00.689881,4.3932395783485845e-06
2025-08-17 01:27:00.690881,-1.2708903341263067e-05
2025-08-17 01:27:00.691881,-1.4957072380639147e-05
2025-08-17 01:27:00.692881,-1.7044658306986094e-05
2025-08-17 01:27:00.693881,-2.2665080905426294e-05
2025-08-17 01:27:00.694881,-2.4351207684958354e-05
2025-08-17 01:27:00.695881,-2.587675044196658e-05
2025-08-17 01:27:00.696881,-1.881107709778007e-05
2025-08-17 01:27:00.697881,-1.2307445103942882e-05
2025-08-17 01:27:00.698881,-6.446147381211631e-06
2025-08-17 01:27:00.699881,3.188862137903925e-06
2025-08-17 01:27:00.699881,1.8203420040663332e-05
2025-08-17 01:27:00.700881,2.7276386390440166e-05
2025-08-17 01:27:00.701881,1.1940663171117194e-05
2025-08-17 01:27:00.702881,-6.927897629793733e-06
2025-08-17 01:27:00.703881,5.677906301571056e-06
2025-08-17 01:27:00.704881,3.429737262194976e-06
2025-08-17 01:27:00.705881,5.517322279047221e-06
2025-08-17 01:27:00.706881,-7.730815923423506e-06
2025-08-17 01:27:00.707881,-3.0212504498194903e-05
2025-08-17 01:27:00.708881,-7.629996980540454e-05
2025-08-17 01:27:00.709881,-0.00013571586168836802
2025-08-17 01:27:00.710881,-3.189863127772696e-05
2025-08-17 01:27:00.711881,1.0495412425370887e-05
2025-08-17 01:27:00.712881,2.3342090571532026e-05
2025-08-17 01:27:00.713881,1.1699787137331441e-05
2025-08-17 01:27:00.714881,4.3575611925916746e-05
2025-08-17 01:27:00.715881,3.394060331629589e-05
2025-08-17 01:27:00.716881,6.0276292060734704e-05
2025-08-17 01:27:00.717881,3.6349352740217e-05
2025-08-17 01:27:00.718881,2.912309719249606e-05
2025-08-17 01:27:00.719881,2.2539174096891657e-05
2025-08-17 01:27:00.720881,1.659758527239319e-05
2025-08-17 01:27:00.721881,2.205742202932015e-05
2025-08-17 01:27:00.722881,7.283741069841199e-06
2025-08-17 01:27:00.723881,-6.20527225692058e-06
2025-08-17 01:27:00.724881,-1.0300151188857853e-05
2025-08-17 01:27:00.725881,-1.3993571883474942e-05
2025-08-17 01:27:00.726881,-1.736582453304436e-05
2025-08-17 01:27:00.727881,-3.270155139034614e-05
2025-08-17 01:27:00.728881,-1.3270945601107087e-05
2025-08-17 01:27:00.729881,-5.7235215535911266e-06
2025-08-17 01:27:00.730881,-3.4753529689623974e-06
2025-08-17 01:27:00.731881,6.9625748437829316e-06
2025-08-17 01:27:00.732881,8.809285645838827e-06
2025-08-17 01:27:00.733881,2.0853047317359596e-05
2025-08-17 01:27:00.734881,1.9327504560351372e-05
2025-08-17 01:27:00.735881,1.5152332707657479e-05
2025-08-17 01:27:00.736881,-1.7892261894303374e-06
2025-08-17 01:27:00.737881,-4.0373952288064174e-06
2025-08-17 01:27:00.738881,6.4005325839389116e-06
2025-08-17 01:27:00.739881,-3.073893822147511e-06
2025-08-17 01:27:00.740881,-1.1665110832836945e-05
2025-08-17 01:27:00.741881,-1.013956807582872e-05
2025-08-17 01:27:00.742881,-2.868696174118668e-05
2025-08-17 01:27:00.743881,-3.623438533395529e-05
2025-08-17 01:27:00.744881,-3.848255437333137e-05
2025-08-17 01:27:00.745881,-1.543882353871595e-05
2025-08-17 01:27:00.746881,-2.4592083718744107e-05
2025-08-17 01:27:00.747881,-1.6322032024618238e-05
2025-08-17 01:27:00.748881,1.153920493379701e-05
2025-08-17 01:27:00.749881,2.261946428916417e-05
2025-08-17 01:27:00.749881,3.105009818682447e-05
2025-08-17 01:27:00.750881,2.093333750963211e-05
2025-08-17 01:27:00.751881,1.788225199561566e-05
2025-08-17 01:27:00.752881,9.612202120479196e-06
2025-08-17 01:27:00.753881,2.064777618215885e-06
2025-08-17 01:27:00.754881,-1.3993571883474942e-05
2025-08-17 01:27:00.755881,-3.5556440707296133e-06
2025-08-17 01:27:00.756881,-1.680378227320034e-05
2025-08-17 01:27:00.757881,-4.273801823728718e-05
2025-08-17 01:27:00.758881,-9.846049215411767e-05
2025-08-17 01:27:00.759881,-0.0001383654889650643
2025-08-17 01:27:00.760881,-2.9409588023554534e-05
2025-08-17 01:27:00.761881,4.847340824198909e-05
2025-08-17 01:27:00.762881,3.434206155361608e-05
2025-08-17 01:27:00.763881,4.7188739699777216e-05
2025-08-17 01:27:00.764881,5.883104677195661e-05
2025-08-17 01:27:00.765881,4.823253402719274e-05
2025-08-17 01:27:00.766881,3.859752177959308e-05
2025-08-17 01:27:00.767881,2.9845723474863917e-05
2025-08-17 01:27:00.768881,3.779460530495271e-05
2025-08-17 01:27:00.769881,-1.3030070476816036e-05
2025-08-17 01:27:00.770881,-0.00011202979658264667
2025-08-17 01:27:00.771881,4.365590211818926e-05
2025-08-17 01:27:00.772881,2.294063233421184e-05
2025-08-17 01:27:00.773881,4.172890112386085e-05
2025-08-17 01:27:00.774881,-9.5775258159847e-06
2025-08-17 01:27:00.775881,5.999074346618727e-06
2025-08-17 01:27:00.776881,-8.132274160743691e-06
2025-08-17 01:27:00.777881,-4.667231405619532e-05
2025-08-17 01:27:00.778881,1.1780079148593359e-05
2025-08-17 01:27:00.779881,1.181569132313598e-06
2025-08-17 01:27:00.780881,1.0816578651429154e-05
2025-08-17 01:27:00.781881,1.956837877514772e-05
2025-08-17 01:27:00.782881,4.349532173364423e-05
2025-08-17 01:27:00.783881,3.6269062547944486e-05
2025-08-17 01:27:00.784881,2.968513945234008e-05
2025-08-17 01:27:00.785881,2.374354880885221e-05
2025-08-17 01:27:00.786881,7.364033081103116e-06
2025-08-17 01:27:00.787881,2.4662367650307715e-06
2025-08-17 01:27:00.788881,6.9625748437829316e-06
2025-08-17 01:27:00.789881,-5.322062861523591e-06
2025-08-17 01:27:00.790881,-1.6402324035880156e-05
2025-08-17 01:27:00.791881,-3.326359365019016e-05
2025-08-17 01:27:00.792881,-3.0212504498194903e-05
2025-08-17 01:27:00.793881,-2.1942454623058438e-05
2025-08-17 01:27:00.794881,-1.4395030120795127e-05
2025-08-17 01:27:00.795881,-1.2146861081419047e-05
2025-08-17 01:27:00.796881,-1.4234447007765993e-05
2025-08-17 01:27:00.797881,-9.863088052952662e-07
2025-08-17 01:27:00.798881,1.8042836018139496e-05
2025-08-17 01:27:00.799881,2.0531879272311926e-05
2025-08-17 01:27:00.799881,1.7561085769557394e-05
2025-08-17 01:27:00.800881,1.980925298994407e-05
2025-08-17 01:27:00.801881,9.406930416844261e-07
2025-08-17 01:27:00.802881,-6.606730948988115e-06
2025-08-17 01:27:00.803881,-4.358561909612035e-06
2025-08-17 01:27:00.804881,-1.4796489267610013e-05
2025-08-17 01:27:00.805881,-5.322062861523591e-06
2025-08-17 01:27:00.806881,-3.125629882561043e-05
2025-08-17 01:27:00.807881,-8.697877638041973e-05
2025-08-17 01:27:00.808881,-9.492765821050853e-05
2025-08-17 01:27:00.809881,1.4028248187969439e-05
2025-08-17 01:27:00.810881,2.9604849260067567e-05
2025-08-17 01:27:00.811881,1.547350075270515e-05
2025-08-17 01:27:00.812881,2.8320180717855692e-05
2025-08-17 01:27:00.813881,3.996248415205628e-05
2025-08-17 01:27:00.814881,5.056099689682014e-05
2025-08-17 01:27:00.815881,4.092598464922048e-05
2025-08-17 01:27:00.816881,3.217418270651251e-05
2025-08-17 01:27:00.817881,2.4225300876423717e-05
2025-08-17 01:27:00.818881,1.6999043509713374e-05
2025-08-17 01:27:00.819881,1.041512041410897e-05
2025-08-17 01:27:00.820881,1.6356709238607436e-05
2025-08-17 01:27:00.821881,-2.2807427058069152e-08
2025-08-17 01:27:00.822881,-1.4796489267610013e-05
2025-08-17 01:27:00.823881,-1.9292827346362174e-05
2025-08-17 01:27:00.824881,-2.338770718779415e-05
2025-08-17 01:27:00.825881,-2.7081126972916536e-05
2025-08-17 01:27:00.826881,-2.3708873413852416e-05
2025-08-17 01:27:00.827881,-8.373149285034742e-06
2025-08-17 01:27:00.828881,-1.030994383199868e-07
2025-08-17 01:27:00.829881,2.385944753768854e-06
2025-08-17 01:27:00.830881,1.3867664165445603e-05
2025-08-17 01:27:00.831881,2.8480764740379527e-05
2025-08-17 01:27:00.832881,2.6634053938323632e-05
2025-08-17 01:27:00.833881,1.8042836018139496e-05
2025-08-17 01:27:00.834881,7.123158866306767e-06
2025-08-17 01:27:00.835881,2.947987013612874e-06
2025-08-17 01:27:00.836881,6.801990821259096e-06
2025-08-17 01:27:00.837881,-1.387767042615451e-06
2025-08-17 01:27:00.838881,-1.736582453304436e-05
2025-08-17 01:27:00.839881,-3.808109613601118e-05
2025-08-17 01:27:00.840881,-3.5351178667042404e-05
2025-08-17 01:27:00.841881,-2.274537291668821e-05
2025-08-17 01:27:00.842881,-2.499354195606429e-05
2025-08-17 01:27:00.843881,-1.8730785086518154e-05
2025-08-17 01:27:00.844881,-1.3110362488077953e-05
2025-08-17 01:27:00.845881,-1.066599907062482e-06
2025-08-17 01:27:00.846881,3.5903212847188115e-06
2025-08-17 01:27:00.847881,2.4947927158791572e-05
2025-08-17 01:27:00.848881,3.410118733881973e-05
2025-08-17 01:27:00.849881,2.5831133825704455e-05
2025-08-17 01:27:00.849881,1.3707081961911172e-05
2025-08-17 01:27:00.850881,1.1218036888749339e-05
2025-08-17 01:27:00.851881,-2.330741517653223e-05
2025-08-17 01:27:00.852881,1.4224442566046491e-06
2025-08-17 01:27:00.853881,-3.073893822147511e-06
2025-08-17 01:27:00.854881,-1.5358531527454033e-05
2025-08-17 01:27:00.855881,-1.1665110832836945e-05
2025-08-17 01:27:00.856881,-6.232920713955536e-05
2025-08-17 01:27:00.857881,-0.00017128510808106512
2025-08-17 01:27:00.858881,-0.00012455531395971775
2025-08-17 01:27:00.859881,3.113039201707579e-05
2025-08-17 01:27:00.860881,1.041512041410897e-05
2025-08-17 01:27:00.861881,2.9203387384768575e-05
2025-08-17 01:27:00.862881,4.630553303286433e-05
2025-08-17 01:27:00.863881,6.188212864799425e-05
2025-08-17 01:27:00.864881,4.7750781959621236e-05
2025-08-17 01:27:00.865881,3.49041038134601e-05
2025-08-17 01:27:00.866881,2.3261800379259512e-05
2025-08-17 01:27:00.867881,1.266328945348505e-05
2025-08-17 01:27:00.868881,3.0282790248747915e-06
2025-08-17 01:27:00.869881,1.1780079148593359e-05
2025-08-17 01:27:00.870881,3.8311973185045645e-06
2025-08-17 01:27:00.871881,-3.3950609577004798e-06
2025-08-17 01:27:00.872881,-9.978984053304885e-06
2025-08-17 01:27:00.873881,-1.5920573787298054e-05
2025-08-17 01:27:00.874881,-2.1380412363214418e-05
2025-08-17 01:27:00.875881,-1.6482616047142074e-05
2025-08-17 01:27:00.876881,-1.1986277968389913e-05
2025-08-17 01:27:00.877881,2.983597084948997e-07
2025-08-17 01:27:00.878881,3.991779522038996e-06
2025-08-17 01:27:00.879881,1.4108540199231356e-05
2025-08-17 01:27:00.880881,2.9444265237543732e-05
2025-08-17 01:27:00.881881,2.6714344130596146e-05
2025-08-17 01:27:00.882881,2.4225300876423717e-05
2025-08-17 01:27:00.883881,1.2743579645757563e-05
2025-08-17 01:27:00.884881,-1.8695172911975533e-06
2025-08-17 01:27:00.885881,3.750905307242647e-06
2025-08-17 01:27:00.885881,-1.182569485536078e-05
2025-08-17 01:27:00.886881,-9.738108929013833e-06
2025-08-17 01:27:00.887881,-2.6840252758120187e-05
2025-08-17 01:27:00.888881,-2.9088419978506863e-05
2025-08-17 01:27:00.889881,-3.5351178667042404e-05
2025-08-17 01:27:00.890881,-3.350446786498651e-05
2025-08-17 01:27:00.891881,-2.1460704374476336e-05
2025-08-17 01:27:00.892881,-1.993516161746811e-05
2025-08-17 01:27:00.893881,-7.088481197570218e-06
2025-08-17 01:27:00.894881,1.1940663171117194e-05
2025-08-17 01:27:00.895881,1.4429706425289623e-05
2025-08-17 01:27:00.896881,1.6677875464665703e-05
2025-08-17 01:27:00.897881,1.041512041410897e-05
2025-08-17 01:27:00.898881,1.603554301254917e-05
2025-08-17 01:27:00.898881,1.1137744877487421e-05
2025-08-17 01:27:00.899881,2.546528776292689e-06
2025-08-17 01:27:00.900881,4.072071533300914e-06
2025-08-17 01:27:00.901881,-8.774608431849629e-06
2025-08-17 01:27:00.902881,-1.3913279872213025e-05
2025-08-17 01:27:00.903881,-2.4832957933540456e-05
2025-08-17 01:27:00.904881,-2.0657787899835967e-05
2025-08-17 01:27:00.905881,-2.1942454623058438e-05
2025-08-17 01:27:00.906881,-3.960663889301941e-05
2025-08-17 01:27:00.907881,-7.758464198559523e-05
2025-08-17 01:27:00.908881,-0.00011580351565498859
2025-08-17 01:27:00.909881,-4.1533643525326625e-05
2025-08-17 01:27:00.910881,5.4174121032701805e-05
2025-08-17 01:27:00.911881,6.702079554088414e-05
2025-08-17 01:27:00.912881,5.537849574466236e-05
2025-08-17 01:27:00.913881,4.47799866378773e-05
2025-08-17 01:27:00.914881,3.5144978028256446e-05
2025-08-17 01:27:00.915881,2.6393176085548475e-05
2025-08-17 01:27:00.916881,1.844429425545968e-05
2025-08-17 01:27:00.917881,1.1218036888749339e-05
2025-08-17 01:27:00.918881,4.634113793144934e-06
2025-08-17 01:27:00.919881,-1.3074750313535333e-06
2025-08-17 01:27:00.920881,-6.7673145167646e-06
2025-08-17 01:27:00.921881,-2.1540996385738254e-05
2025-08-17 01:27:00.922881,-1.7044658306986094e-05
2025-08-17 01:27:00.923881,-2.113953814841807e-05
2025-08-17 01:27:00.924881,-2.5921435735654086e-06
2025-08-17 01:27:00.925881,-2.619791848701425e-05
2025-08-17 01:27:00.926881,-1.0862193448701873e-05
2025-08-17 01:27:00.927881,3.096980799455196e-05
2025-08-17 01:27:00.928881,3.691139500006102e-05
2025-08-17 01:27:00.929881,3.1451556424144655e-05
2025-08-17 01:27:00.930881,2.655376010807231e-05
2025-08-17 01:27:00.931881,1.3064747690805234e-05
2025-08-17 01:27:00.932881,8.969867849373259e-06
2025-08-17 01:27:00.933881,5.2764480642508715e-06
2025-08-17 01:27:00.934881,-4.840312158194138e-06
2025-08-17 01:27:00.935881,-1.3993571883474942e-05
2025-08-17 01:27:00.936881,-2.226362266810611e-05
2025-08-17 01:27:00.937881,-2.475266592227854e-05
2025-08-17 01:27:00.938881,-2.700083496165462e-05
2025-08-17 01:27:00.939881,-3.743876368389465e-05
2025-08-17 01:27:00.940881,-1.656290805840399e-05
2025-08-17 01:27:00.941881,-8.292857273772825e-06
2025-08-17 01:27:00.942881,-2.0898662114632316e-05
2025-08-17 01:27:00.943881,-1.8339054008720268e-07
2025-08-17 01:27:00.944881,1.3707081961911172e-05
2025-08-17 01:27:00.945881,2.631288589327596e-05
2025-08-17 01:27:00.946881,2.406471685389988e-05
2025-08-17 01:27:00.947881,2.1977131837047637e-05
2025-08-17 01:27:00.948881,8.72899363457691e-06
2025-08-17 01:27:00.948881,2.1806769723298203e-07
2025-08-17 01:27:00.949881,-4.920604169456055e-06
2025-08-17 01:27:00.950881,-2.6368255134912033e-07
2025-08-17 01:27:00.951881,-1.013956807582872e-05
2025-08-17 01:27:00.952881,-2.443149969622027e-05
2025-08-17 01:27:00.953881,-2.6278210498276167e-05
2025-08-17 01:27:00.954881,-2.4592083718744107e-05
2025-08-17 01:27:00.955881,-4.811756298295222e-05
2025-08-17 01:27:00.956881,-9.878166019916534e-05
2025-08-17 01:27:00.957881,-7.70225960877724e-05
2025-08-17 01:27:00.958881,2.1977131837047637e-05
2025-08-17 01:27:00.959881,3.610847852542065e-05
2025-08-17 01:27:00.960881,4.89551603095606e-05
2025-08-17 01:27:00.961881,6.0597460105782375e-05
2025-08-17 01:27:00.962881,4.9998950998997316e-05
2025-08-17 01:27:00.963881,4.036394238937646e-05
2025-08-17 01:27:00.964881,3.161214044666849e-05
2025-08-17 01:27:00.965881,2.3663258616579697e-05
2025-08-17 01:27:00.966881,1.9041945051867515e-06
2025-08-17 01:27:00.967881,8.488117600791156e-06
2025-08-17 01:27:00.968881,-9.416941793460865e-06
2025-08-17 01:27:00.969881,-3.9571032175445e-06
2025-08-17 01:27:00.970881,-1.8730785086518154e-05
2025-08-17 01:27:00.971881,-2.3227123165270314e-05
2025-08-17 01:27:00.972881,-1.9132243323838338e-05
2025-08-17 01:27:00.973881,-1.543882353871595e-05
2025-08-17 01:27:00.974881,-5.322062861523591e-06
2025-08-17 01:27:00.975881,-8.373149285034742e-06
2025-08-17 01:27:00.976881,1.675816747592762e-05
2025-08-17 01:27:00.977881,2.687492815311998e-05
2025-08-17 01:27:00.978881,2.992601366713643e-05
2025-08-17 01:27:00.979881,2.7196096198167652e-05
2025-08-17 01:27:00.980881,1.4590290447813459e-05
2025-08-17 01:27:00.981881,-1.4680590538773686e-06
2025-08-17 01:27:00.982881,6.195268156261591e-07
2025-08-17 01:27:00.983881,-8.854899533616845e-06
2025-08-17 01:27:00.984881,-1.0541026313148905e-05
2025-08-17 01:27:00.985881,-1.2066569979651831e-05
2025-08-17 01:27:00.986881,-2.7723461244022474e-05
2025-08-17 01:27:00.987881,-2.981104626087472e-05
2025-08-17 01:27:00.988881,-2.419062366243452e-05
2025-08-17 01:27:00.989881,-2.250449688290246e-05
2025-08-17 01:27:00.990881,-1.4716197256348096e-05
2025-08-17 01:27:00.991881,-7.650523912161589e-06
2025-08-17 01:27:00.992881,1.1860371159855276e-05
2025-08-17 01:27:00.993881,2.013042103499174e-05
2025-08-17 01:27:00.994881,2.767784462776035e-05
2025-08-17 01:27:00.995881,2.542967558838427e-05
2025-08-17 01:27:00.996881,1.0816578651429154e-05
2025-08-17 01:27:00.997881,-2.4315595510415733e-06
2025-08-17 01:27:00.998881,-7.570231900899671e-06
2025-08-17 01:27:00.998881,2.4662367650307715e-06
2025-08-17 01:27:00.999881,-2.105924613715615e-05
2025-08-17 01:27:01.000881,-3.792051211348735e-05
2025-08-17 01:27:01.001881,-1.6482616047142074e-05
2025-08-17 01:27:01.002881,-1.9212535335100256e-05
2025-08-17 01:27:01.003881,-2.675996074685827e-05
2025-08-17 01:27:01.004881,-1.993516161746811e-05
2025-08-17 01:27:01.005881,-9.497233804722782e-06
2025-08-17 01:27:01.006881,-1.5117656403162982e-05
2025-08-17 01:27:01.007881,-9.978984053304885e-06
2025-08-17 01:27:01.008881,1.3546497939387336e-05
2025-08-17 01:27:01.009881,-3.711759563884698e-05
2025-08-17 01:27:01.010881,-0.00013154068437870592
2025-08-17 01:27:01.011881,6.140037294244394e-05
2025-08-17 01:27:01.012881,3.386030948604457e-05
2025-08-17 01:27:01.013881,5.891133696422912e-05
2025-08-17 01:27:01.014881,3.610847852542065e-05
2025-08-17 01:27:01.015881,1.5393208741443232e-05
2025-08-17 01:27:01.016881,3.418147753109224e-05
2025-08-17 01:27:01.017881,-8.561381400795653e-05
2025-08-17 01:27:01.018881,-0.00016349680663552135
2025-08-17 01:27:01.019881,-6.449708598665893e-05
2025-08-17 01:27:01.020881,2.5509969418635592e-05
2025-08-17 01:27:01.021881,1.3867664165445603e-05
2025-08-17 01:27:01.022881,2.4466175091220066e-05
2025-08-17 01:27:01.023881,3.410118733881973e-05
2025-08-17 01:27:01.024881,4.285298564354889e-05
2025-08-17 01:27:01.025881,5.0801867473637685e-05
2025-08-17 01:27:01.026881,5.8028123021358624e-05
2025-08-17 01:27:01.027881,5.1444203563733026e-05
2025-08-17 01:27:01.028881,3.353914507897571e-05
2025-08-17 01:27:01.029881,1.715962753223721e-05
2025-08-17 01:27:01.030881,2.205742202932015e-05
2025-08-17 01:27:01.031881,2.655376010807231e-05
2025-08-17 01:27:01.032881,6.079364538891241e-06
2025-08-17 01:27:01.033881,-5.000895725970622e-06
2025-08-17 01:27:01.034881,-8.373149285034742e-06
2025-08-17 01:27:01.035881,-1.7526408555568196e-05
2025-08-17 01:27:01.036881,-2.0256327843526378e-05
2025-08-17 01:27:01.037881,-2.274537291668821e-05
2025-08-17 01:27:01.038881,-1.126365259551676e-05
2025-08-17 01:27:01.039881,-5.000895725970622e-06
2025-08-17 01:27:01.040881,-3.1541858334094286e-06
2025-08-17 01:27:01.041881,-1.4680590538773686e-06
2025-08-17 01:27:01.042881,1.5794666978763416e-05
2025-08-17 01:27:01.043881,2.7276386390440166e-05
2025-08-17 01:27:01.044881,2.1013631339883432e-05
2025-08-17 01:27:01.045881,1.9166920537827536e-05
2025-08-17 01:27:01.046881,7.123158866306767e-06
2025-08-17 01:27:01.047881,-1.6402324035880156e-05
2025-08-17 01:27:01.048881,-3.326359365019016e-05
2025-08-17 01:27:01.048881,1.502735358371865e-06
2025-08-17 01:27:01.049881,-1.3832987860951107e-05
2025-08-17 01:27:01.050881,-1.656290805840399e-05
2025-08-17 01:27:01.051881,-2.41103316511726e-05
2025-08-17 01:27:01.052881,-2.635850069054868e-05
2025-08-17 01:27:01.053881,-3.679642759379931e-05
2025-08-17 01:27:01.054881,-8.292857273772825e-06
2025-08-17 01:27:01.055881,-6.971605034777895e-05
2025-08-17 01:27:01.056881,-0.00013121952360961586
2025-08-17 01:27:01.057881,-7.533647294621915e-05
2025-08-17 01:27:01.058881,3.361943527124822e-05
2025-08-17 01:27:01.059881,4.9196034524356946e-05
2025-08-17 01:27:01.060881,6.332738121272996e-05
2025-08-17 01:27:01.061881,5.0480699428590015e-05
2025-08-17 01:27:01.062881,1.547350075270515e-05
2025-08-17 01:27:01.063881,4.874989826930687e-06
2025-08-17 01:27:01.064881,1.4509998436551541e-05
2025-08-17 01:27:01.065881,5.758198312832974e-06
2025-08-17 01:27:01.066881,-2.190684426750522e-06
2025-08-17 01:27:01.067881,-9.416941793460865e-06
2025-08-17 01:27:01.068881,-1.600086579855997e-05
2025-08-17 01:27:01.069881,-2.1942454623058438e-05
2025-08-17 01:27:01.070881,-5.562937985814642e-06
2025-08-17 01:27:01.071881,-6.651417265857162e-07
2025-08-17 01:27:01.072881,-5.1614792937471066e-06
2025-08-17 01:27:01.073881,-1.066599907062482e-06
2025-08-17 01:27:01.074881,2.486763332854025e-05
2025-08-17 01:27:01.075881,-2.579645843070466e-05
2025-08-17 01:27:01.076881,2.5028217351064086e-05
2025-08-17 01:27:01.077881,1.844429425545968e-05
2025-08-17 01:27:01.078881,2.4385884898947552e-05
2025-08-17 01:27:01.079881,8.006367352209054e-06
2025-08-17 01:27:01.080881,2.2780048311688006e-05
2025-08-17 01:27:01.081881,2.983597084948997e-07
2025-08-17 01:27:01.082881,-3.7965191950206645e-06
2025-08-17 01:27:01.083881,-3.7278179661370814e-05
2025-08-17 01:27:01.084881,-3.2781841582618654e-05
2025-08-17 01:27:01.085881,-2.049720387731213e-05
2025-08-17 01:27:01.086881,-1.680378227320034e-05
2025-08-17 01:27:01.087881,-6.687022505502682e-06
2025-08-17 01:27:01.088881,-3.635936081991531e-06
2025-08-17 01:27:01.089881,-9.060168508767674e-07
2025-08-17 01:27:01.090881,6.641406798735261e-06
2025-08-17 01:27:01.091881,1.3466205928125419e-05
2025-08-17 01:27:01.092881,2.3904132831376046e-05
2025-08-17 01:27:01.093881,2.9524555429816246e-05
2025-08-17 01:27:01.094881,2.093333750963211e-05
2025-08-17 01:27:01.095881,-2.5921435735654086e-06
2025-08-17 01:27:01.096881,7.801099286552926e-07
2025-08-17 01:27:01.097881,3.8311973185045645e-06
2025-08-17 01:27:01.098881,-4.438853466126602e-06
2025-08-17 01:27:01.098881,-1.1022777471225709e-05
2025-08-17 01:27:01.099881,-2.868696174118668e-05
2025-08-17 01:27:01.100881,-1.720524232950993e-05
2025-08-17 01:27:01.101881,-3.181834108545445e-05
2025-08-17 01:27:01.102881,-2.2343914679368027e-05
2025-08-17 01:27:01.102881,-1.0300151188857853e-05
2025-08-17 01:27:01.103881,-1.182569485536078e-05
2025-08-17 01:27:01.104881,-1.600086579855997e-05
2025-08-17 01:27:01.105881,-3.551176268956624e-05
2025-08-17 01:27:01.106881,-7.734376413282007e-05
2025-08-17 01:27:01.107881,1.2582997442223132e-05
2025-08-17 01:27:01.108881,7.689668564125896e-05
2025-08-17 01:27:01.109881,4.1889485146384686e-05
2025-08-17 01:27:01.110881,3.129097603959963e-05
2025-08-17 01:27:01.111881,2.1655963791999966e-05
2025-08-17 01:27:01.112881,3.0407765734707937e-05
2025-08-17 01:27:01.113881,6.480824595200829e-06
2025-08-17 01:27:01.114881,-7.454328283529321e-07
2025-08-17 01:27:01.115881,-7.32935677660862e-06
2025-08-17 01:27:01.116881,-1.387767042615451e-06
2025-08-17 01:27:01.117881,-1.776728458935395e-05
2025-08-17 01:27:01.118881,-1.2869487363786902e-05
2025-08-17 01:27:01.119881,-8.373149285034742e-06
2025-08-17 01:27:01.120881,-4.278270353097469e-06
2025-08-17 01:27:01.121881,6.801990821259096e-06
2025-08-17 01:27:01.122881,1.6918751498451456e-05
2025-08-17 01:27:01.123881,2.6072011678479612e-05
2025-08-17 01:27:01.124881,3.434206155361608e-05
2025-08-17 01:27:01.125881,2.1736257622251287e-05
2025-08-17 01:27:01.126881,5.677906301571056e-06
2025-08-17 01:27:01.127881,-5.848497153237986e-07
2025-08-17 01:27:01.128881,5.035572030465119e-06
2025-08-17 01:27:01.129881,-7.008189641055651e-06
2025-08-17 01:27:01.130881,-1.1665110832836945e-05
2025-08-17 01:27:01.131881,-2.451179170748219e-05
2025-08-17 01:27:01.132881,-1.5920573787298054e-05
2025-08-17 01:27:01.133881,-2.3708873413852416e-05
2025-08-17 01:27:01.134881,-2.7884043447556905e-05
2025-08-17 01:27:01.135881,-1.6161449821083806e-05
2025-08-17 01:27:01.136881,-1.768699257809203e-05
2025-08-17 01:27:01.137881,-1.0621318324410822e-05
2025-08-17 01:27:01.138881,-9.336650691693649e-06
2025-08-17 01:27:01.139881,8.327533578267321e-06
2025-08-17 01:27:01.140881,3.618877235567197e-05
2025-08-17 01:27:01.141881,2.5108511181315407e-05
2025-08-17 01:27:01.142881,2.1736257622251287e-05
2025-08-17 01:27:01.143881,2.983597084948997e-07
2025-08-17 01:27:01.144881,-2.4315595510415733e-06
2025-08-17 01:27:01.145881,5.74845842038485e-08
2025-08-17 01:27:01.146881,-1.1424235708545893e-05
2025-08-17 01:27:01.147881,-9.336650691693649e-06
2025-08-17 01:27:01.147881,-1.1022777471225709e-05
2025-08-17 01:27:01.148881,-3.9526348700746894e-05
2025-08-17 01:27:01.149881,-1.905195131257642e-05
2025-08-17 01:27:01.150881,-3.0132212486932985e-05
2025-08-17 01:27:01.151881,-6.526438937726198e-06
2025-08-17 01:27:01.152881,-9.5775258159847e-06
2025-08-17 01:27:01.153881,1.5553790944977663e-05
2025-08-17 01:27:01.154881,-3.511030081426725e-05
2025-08-17 01:27:01.155881,-0.0001150005919043906
2025-08-17 01:27:01.156881,-6.184745870996267e-05
2025-08-17 01:27:01.157881,6.372883945005015e-05
2025-08-17 01:27:01.158881,4.6626697439933196e-05
2025-08-17 01:27:01.159881,3.105009818682447e-05
2025-08-17 01:27:01.160881,1.6918751498451456e-05
2025-08-17 01:27:01.161881,2.9765429644612595e-05
2025-08-17 01:27:01.162881,1.8123128029401414e-05
2025-08-17 01:27:01.163881,7.5246171036269516e-06
2025-08-17 01:27:01.164881,-2.1103933249833062e-06
2025-08-17 01:27:01.165881,-1.0862193448701873e-05
2025-08-17 01:27:01.166881,-1.881107709778007e-05
2025-08-17 01:27:01.167881,-1.1584818821575027e-05
2025-08-17 01:27:01.168881,-5.000895725970622e-06
2025-08-17 01:27:01.169881,9.406930416844261e-07
2025-08-17 01:27:01.170881,6.4005325839389116e-06
2025-08-17 01:27:01.171881,2.1174215362407267e-05
2025-08-17 01:27:01.172881,2.5670553441159427e-05
2025-08-17 01:27:01.173881,2.9765429644612595e-05
2025-08-17 01:27:01.174881,1.868516847025603e-05
2025-08-17 01:27:01.175881,1.5312916730181314e-05
2025-08-17 01:27:01.176881,-6.124980245658662e-06
2025-08-17 01:27:01.177881,-3.3950609577004798e-06
2025-08-17 01:27:01.178881,-5.884105121367611e-06
2025-08-17 01:27:01.179881,-8.132274160743691e-06
2025-08-17 01:27:01.180881,-1.8570201063994318e-05
2025-08-17 01:27:01.181881,-1.6723492080927826e-05
2025-08-17 01:27:01.182881,-2.531470818212256e-05
2025-08-17 01:27:01.183881,-2.6840252758120187e-05
2025-08-17 01:27:01.184881,-1.9774577594944276e-05
2025-08-17 01:27:01.185881,-8.051982149481773e-06
2025-08-17 01:27:01.186881,-2.6368255134912033e-07
2025-08-17 01:27:01.187881,1.1012771210516803e-06
2025-08-17 01:27:01.188881,1.5393208741443232e-05
2025-08-17 01:27:01.189881,9.772786143003032e-06
2025-08-17 01:27:01.190881,-5.803813564853044e-06
2025-08-17 01:27:01.191881,1.3064747690805234e-05
2025-08-17 01:27:01.192881,1.0575702617643401e-05
2025-08-17 01:27:01.193881,3.750905307242647e-06
2025-08-17 01:27:01.194881,-2.511851562303491e-06
2025-08-17 01:27:01.195881,-6.651417265857162e-07
2025-08-17 01:27:01.196881,-9.256358680431731e-06
2025-08-17 01:27:01.197881,-2.338770718779415e-05
2025-08-17 01:27:01.197881,-2.3227123165270314e-05
2025-08-17 01:27:01.198881,-1.7606700566830114e-05
2025-08-17 01:27:01.199881,-2.274537291668821e-05
2025-08-17 01:27:01.200881,-2.1219830159679987e-05
2025-08-17 01:27:01.201881,-8.373149285034742e-06
2025-08-17 01:27:01.202881,3.670613295980729e-06
2025-08-17 01:27:01.203881,1.4590290447813459e-05
2025-08-17 01:27:01.204881,1.322533171332907e-05
2025-08-17 01:27:01.205881,-6.285563813435147e-06
2025-08-17 01:27:01.206881,-4.811756298295222e-05
2025-08-17 01:27:01.207881,-1.8168742826674134e-05
2025-08-17 01:27:01.208881,6.372883945005015e-05
2025-08-17 01:27:01.209881,2.8721638955175877e-05
2025-08-17 01:27:01.210881,3.9320148061960936e-05
2025-08-17 01:27:01.211881,1.041512041410897e-05
2025-08-17 01:27:01.212881,1.6633193808957003e-06
2025-08-17 01:27:01.213881,-6.285563813435147e-06
2025-08-17 01:27:01.214881,-1.351182163489284e-05
2025-08-17 01:27:01.215881,-6.927897629793733e-06
2025-08-17 01:27:01.216881,-9.863088052952662e-07
2025-08-17 01:27:01.217881,4.473529770621099e-06
2025-08-17 01:27:01.218881,9.371327905682847e-06
2025-08-17 01:27:01.219881,1.3867664165445603e-05
2025-08-17 01:27:01.220881,1.796254400687758e-05
2025-08-17 01:27:01.221881,2.1655963791999966e-05
2025-08-17 01:27:01.222881,3.1772724469192326e-05
2025-08-17 01:27:01.223881,4.072071533300914e-06
2025-08-17 01:27:01.224881,7.765491318423301e-06
2025-08-17 01:27:01.225881,4.3932395783485845e-06
2025-08-17 01:27:01.226881,1.3546497939387336e-05
2025-08-17 01:27:01.227881,-3.43974562611038e-07
2025-08-17 01:27:01.228881,-7.89139903645264e-06
2025-08-17 01:27:01.229881,-1.4716197256348096e-05
2025-08-17 01:27:01.230881,-2.0978954125894234e-05
2025-08-17 01:27:01.231881,-1.9132243323838338e-05
2025-08-17 01:27:01.232881,-2.4270915673696436e-05
2025-08-17 01:27:01.233881,-1.013956807582872e-05
2025-08-17 01:27:01.234881,-1.1986277968389913e-05
2025-08-17 01:27:01.235881,-6.847606073279167e-06
2025-08-17 01:27:01.236881,9.406930416844261e-07
2025-08-17 01:27:01.237881,2.2298299882095307e-05
2025-08-17 01:27:01.238881,3.1451556424144655e-05
2025-08-17 01:27:01.239881,2.318150654900819e-05
2025-08-17 01:27:01.240881,1.563408295623958e-05
2025-08-17 01:27:01.241881,4.1523635445628315e-06
2025-08-17 01:27:01.242881,-2.1103933249833062e-06
2025-08-17 01:27:01.243881,-2.6368255134912033e-07
2025-08-17 01:27:01.244881,-8.854899533616845e-06
2025-08-17 01:27:01.245881,-1.066599907062482e-06
2025-08-17 01:27:01.246881,-1.6723492080927826e-05
2025-08-17 01:27:01.247881,-1.881107709778007e-05
2025-08-17 01:27:01.247881,-3.8964306440902874e-05
2025-08-17 01:27:01.248881,-1.0460735211381689e-05
2025-08-17 01:27:01.249881,-7.18839219189249e-05
2025-08-17 01:27:01.250881,-0.00011580351565498859
2025-08-17 01:27:01.251881,3.991779522038996e-06
2025-08-17 01:27:01.252881,2.1093921532155946e-05
2025-08-17 01:27:01.253881,3.667052078526467e-05
2025-08-17 01:27:01.254881,5.0801867473637685e-05
2025-08-17 01:27:01.255881,3.7955189327476546e-05
2025-08-17 01:27:01.256881,2.947987013612874e-06
2025-08-17 01:27:01.257881,-0.0001140370950452052
2025-08-17 01:27:01.258881,-9.846049215411767e-05
2025-08-17 01:27:01.259881,5.392348043642414e-07
2025-08-17 01:27:01.260881,3.9079273847164586e-05
2025-08-17 01:27:01.261881,2.7436970412964e-05
2025-08-17 01:27:01.262881,1.683845948718954e-05
2025-08-17 01:27:01.263881,7.203449058579281e-06
2025-08-17 01:27:01.264881,-1.5483510651392862e-06
2025-08-17 01:27:01.265881,-9.497233804722782e-06
2025-08-17 01:27:01.266881,1.2261829397175461e-05
2025-08-17 01:27:01.267881,5.677906301571056e-06
2025-08-17 01:27:01.268881,2.3582964786328375e-05
2025-08-17 01:27:01.269881,1.8123128029401414e-05
2025-08-17 01:27:01.270881,3.2896808988880366e-05
2025-08-17 01:27:01.271881,3.7393147067632526e-05
2025-08-17 01:27:01.272881,3.329826722620055e-05
2025-08-17 01:27:01.273881,2.2218006051843986e-05
2025-08-17 01:27:01.274881,5.356740075512789e-06
2025-08-17 01:27:01.275881,2.305653652001638e-06
2025-08-17 01:27:01.276881,-4.2426657387295563e-07
2025-08-17 01:27:01.277881,-7.971691047714557e-06
2025-08-17 01:27:01.278881,-1.0219859177595936e-05
2025-08-17 01:27:01.279881,-2.9088419978506863e-05
2025-08-17 01:27:01.280881,-2.1540996385738254e-05
2025-08-17 01:27:01.281881,-2.836579551512841e-05
2025-08-17 01:27:01.282881,-2.2103038645582274e-05
2025-08-17 01:27:01.283881,-1.2628612239495851e-05
2025-08-17 01:27:01.284881,-7.489939889637753e-06
2025-08-17 01:27:01.285881,2.983597084948997e-07
2025-08-17 01:27:01.286881,1.0174244380323216e-05
2025-08-17 01:27:01.287881,2.1896841644775122e-05
2025-08-17 01:27:01.288881,-1.628642166906502e-06
2025-08-17 01:27:01.289881,1.743611392157618e-06
2025-08-17 01:27:01.290881,1.7079335520975292e-05
2025-08-17 01:27:01.291881,3.188862137903925e-06
2025-08-17 01:27:01.292881,1.0736286640167236e-05
2025-08-17 01:27:01.293881,-9.978984053304885e-06
2025-08-17 01:27:01.294881,-2.386945743637625e-05
2025-08-17 01:27:01.295881,-6.20527225692058e-06
2025-08-17 01:27:01.296881,-2.226362266810611e-05
2025-08-17 01:27:01.297881,-2.0176037651253864e-05
2025-08-17 01:27:01.297881,-3.543146885931492e-05
2025-08-17 01:27:01.298881,-4.105189145775512e-05
2025-08-17 01:27:01.299881,-1.5117656403162982e-05
2025-08-17 01:27:01.300881,-1.1424235708545893e-05
2025-08-17 01:27:01.301881,1.2181537385913543e-05
2025-08-17 01:27:01.302881,2.1334799384931102e-05
2025-08-17 01:27:01.303881,3.522527185850777e-05
2025-08-17 01:27:01.304881,2.261946428916417e-05
2025-08-17 01:27:01.305881,2.037129524978809e-05
2025-08-17 01:27:01.306881,-2.6724355848273262e-06
2025-08-17 01:27:01.307881,3.7865081026211556e-07
2025-08-17 01:27:01.308881,-4.14533496950753e-05
2025-08-17 01:27:01.309881,-0.0001313801039941609
2025-08-17 01:27:01.310881,-6.706641579512507e-05
2025-08-17 01:27:01.311881,3.8196063542272896e-05
2025-08-17 01:27:01.312881,2.406471685389988e-05
2025-08-17 01:27:01.313881,1.1218036888749339e-05
2025-08-17 01:27:01.314881,-2.3789165425114334e-05
2025-08-17 01:27:01.315881,2.936397140729241e-05
2025-08-17 01:27:01.316881,1.9728962797671556e-05
2025-08-17 01:27:01.317881,1.097716267395299e-05
2025-08-17 01:27:01.318881,3.49041038134601e-05
2025-08-17 01:27:01.319881,2.767784462776035e-05
2025-08-17 01:27:01.320881,3.4261767723364756e-05
2025-08-17 01:27:01.321881,2.8320180717855692e-05
2025-08-17 01:27:01.322881,2.2860342141939327e-05
2025-08-17 01:27:01.323881,1.796254400687758e-05
2025-08-17 01:27:01.324881,4.473529770621099e-06
2025-08-17 01:27:01.325881,3.7865081026211556e-07
2025-08-17 01:27:01.326881,-3.314768946438562e-06
2025-08-17 01:27:01.327881,-1.3431529623630922e-05
2025-08-17 01:27:01.328881,-1.6482616047142074e-05
2025-08-17 01:27:01.329881,-1.9212535335100256e-05
2025-08-17 01:27:01.330881,-2.675996074685827e-05
2025-08-17 01:27:01.331881,-1.5278239516192116e-05
2025-08-17 01:27:01.332881,-4.840312158194138e-06
2025-08-17 01:27:01.333881,-6.687022505502682e-06
2025-08-17 01:27:01.334881,5.356740075512789e-06
2025-08-17 01:27:01.335881,1.627641722734552e-05
2025-08-17 01:27:01.336881,1.491145849286113e-05
2025-08-17 01:27:01.337881,1.8765462300507352e-05
2025-08-17 01:27:01.338881,1.5312916730181314e-05
2025-08-17 01:27:01.339881,5.677906301571056e-06
2025-08-17 01:27:01.340881,-3.3950609577004798e-06
2025-08-17 01:27:01.341881,-2.2709764380124398e-06
2025-08-17 01:27:01.342881,-1.3993571883474942e-05
2025-08-17 01:27:01.343881,-1.2468028216972016e-05
2025-08-17 01:27:01.344881,-3.101542461081408e-05
2025-08-17 01:27:01.345881,-2.3467999199056067e-05
2025-08-17 01:27:01.346881,-1.664320006966591e-05
2025-08-17 01:27:01.347881,-2.7081126972916536e-05
2025-08-17 01:27:01.347881,-1.8088450815412216e-05
2025-08-17 01:27:01.348881,-2.3708873413852416e-05
2025-08-17 01:27:01.349881,-8.132274160743691e-06
2025-08-17 01:27:01.350881,2.305653652001638e-06
2025-08-17 01:27:01.351881,1.5553790944977663e-05
2025-08-17 01:27:01.352881,2.7597554435487837e-05
2025-08-17 01:27:01.353881,2.294063233421184e-05
2025-08-17 01:27:01.354881,1.5830273696337827e-06
2025-08-17 01:27:01.355881,-4.450443520909175e-05
2025-08-17 01:27:01.356881,-0.00010392033436801285
2025-08-17 01:27:01.357881,1.5874958990025334e-05
2025-08-17 01:27:01.358881,3.297710281913169e-05
2025-08-17 01:27:01.359881,1.740050174703356e-05
2025-08-17 01:27:01.360881,3.2691541491658427e-06
2025-08-17 01:27:01.361881,1.6115833204821683e-05
2025-08-17 01:27:01.362881,4.473529770621099e-06
2025-08-17 01:27:01.363881,-6.124980245658662e-06
2025-08-17 01:27:01.364881,3.510029273456894e-06
2025-08-17 01:27:01.365881,-5.241771305009024e-06
2025-08-17 01:27:01.366881,1.868516847025603e-05
2025-08-17 01:27:01.367881,1.1458912922535092e-05
2025-08-17 01:27:01.368881,3.1210682209348306e-05
2025-08-17 01:27:01.369881,3.715227285283618e-05
2025-08-17 01:27:01.370881,2.0772757125087082e-05
2025-08-17 01:27:01.371881,2.5670553441159427e-05
2025-08-17 01:27:01.372881,1.2181537385913543e-05
2025-08-17 01:27:01.373881,-2.467237391101662e-05
2025-08-17 01:27:01.374881,9.933370165526867e-06
2025-08-17 01:27:01.375881,-1.2548320228233933e-05
2025-08-17 01:27:01.376881,-2.4832957933540456e-05
2025-08-17 01:27:01.377881,-1.3752696759183891e-05
2025-08-17 01:27:01.378881,-1.712495031824801e-05
2025-08-17 01:27:01.379881,-3.246067353757098e-05
2025-08-17 01:27:01.380881,-1.8570201063994318e-05
2025-08-17 01:27:01.381881,-1.1022777471225709e-05
2025-08-17 01:27:01.382881,-4.197978341835551e-06
2025-08-17 01:27:01.383881,2.064777618215885e-06
2025-08-17 01:27:01.384881,1.9166920537827536e-05
2025-08-17 01:27:01.385881,2.599171784822829e-05
2025-08-17 01:27:01.386881,1.9728962797671556e-05
2025-08-17 01:27:01.387881,1.4108540199231356e-05
2025-08-17 01:27:01.388881,-1.4680590538773686e-06
2025-08-17 01:27:01.389881,4.794697815668769e-06
2025-08-17 01:27:01.390881,2.947987013612874e-06
2025-08-17 01:27:01.391881,1.2618602340808138e-06
2025-08-17 01:27:01.392881,-6.526438937726198e-06
2025-08-17 01:27:01.393881,-2.218333065684419e-05
2025-08-17 01:27:01.394881,-2.0095745639991947e-05
2025-08-17 01:27:01.395881,-2.5716168238432147e-05
2025-08-17 01:27:01.396881,-3.430738433962688e-05
2025-08-17 01:27:01.397881,-2.0176037651253864e-05
2025-08-17 01:27:01.397881,-1.294977937504882e-05
2025-08-17 01:27:01.398881,-7.32935677660862e-06
2025-08-17 01:27:01.399881,4.7144058044068515e-06
2025-08-17 01:27:01.400881,1.2502705430961214e-05
2025-08-17 01:27:01.401881,2.8159596695331857e-05
2025-08-17 01:27:01.402881,5.115864041727036e-06
2025-08-17 01:27:01.403881,2.655376010807231e-05
2025-08-17 01:27:01.404881,-1.5278239516192116e-05
2025-08-17 01:27:01.405881,-0.00010520499927224591
2025-08-17 01:27:01.406881,-6.666495755780488e-05
2025-08-17 01:27:01.407881,3.859752177959308e-05
2025-08-17 01:27:01.408881,2.4466175091220066e-05
2025-08-17 01:27:01.409881,1.1619496945058927e-05
2025-08-17 01:27:01.410881,-2.2807427058069152e-08
2025-08-17 01:27:01.411881,-1.0621318324410822e-05
2025-08-17 01:27:01.412881,-9.863088052952662e-07
2025-08-17 01:27:01.413881,7.765491318423301e-06
2025-08-17 01:27:01.414881,1.57143749675015e-05
2025-08-17 01:27:01.415881,2.294063233421184e-05
2025-08-17 01:27:01.416881,2.9524555429816246e-05
2025-08-17 01:27:01.417881,3.546614607330412e-05
2025-08-17 01:27:01.418881,4.092598464922048e-05
2025-08-17 01:27:01.419881,2.6152301870752126e-05
2025-08-17 01:27:01.420881,1.266328945348505e-05
2025-08-17 01:27:01.421881,3.7865081026211556e-07
2025-08-17 01:27:01.422881,4.072071533300914e-06
2025-08-17 01:27:01.423881,-6.044688689144095e-06
2025-08-17 01:27:01.424881,-2.9936018108855933e-06
2025-08-17 01:27:01.425881,-1.126365259551676e-05
2025-08-17 01:27:01.426881,-1.881107709778007e-05
2025-08-17 01:27:01.427881,-3.48694265994709e-05
2025-08-17 01:27:01.428881,-2.0256327843526378e-05
2025-08-17 01:27:01.429881,-1.0781901437439956e-05
2025-08-17 01:27:01.430881,-5.64322999707656e-06
2025-08-17 01:27:01.431881,-4.117686330573633e-06
2025-08-17 01:27:01.432881,5.74845842038485e-08
2025-08-17 01:27:01.433881,1.434941623301711e-05
2025-08-17 01:27:01.434881,2.7597554435487837e-05
2025-08-17 01:27:01.435881,1.90063365153037e-05
2025-08-17 01:27:01.436881,1.434941623301711e-05
2025-08-17 01:27:01.437881,1.502735358371865e-06
2025-08-17 01:27:01.438881,-3.635936081991531e-06
2025-08-17 01:27:01.439881,-5.1614792937471066e-06
2025-08-17 01:27:01.440881,-6.526438937726198e-06
2025-08-17 01:27:01.441881,-2.3467999199056067e-05
2025-08-17 01:27:01.442881,-1.664320006966591e-05
2025-08-17 01:27:01.443881,-1.4555614143318962e-05
2025-08-17 01:27:01.444881,-2.4030041458900087e-05
2025-08-17 01:27:01.445881,-2.5716168238432147e-05
2025-08-17 01:27:01.446881,-1.4796489267610013e-05
2025-08-17 01:27:01.447881,-4.920604169456055e-06
2025-08-17 01:27:01.447881,-3.6716137401526794e-05
2025-08-17 01:27:01.448881,-1.720524232950993e-05
2025-08-17 01:27:01.449881,2.46267591137439e-05
2025-08-17 01:27:01.450881,3.056834975723177e-05
2025-08-17 01:27:01.451881,2.5108511181315407e-05
2025-08-17 01:27:01.452881,2.0210714865243062e-05
2025-08-17 01:27:01.453881,1.57143749675015e-05
2025-08-17 01:27:01.454881,-4.5708813559031114e-05
2025-08-17 01:27:01.455881,-0.00014238008589018136
2025-08-17 01:27:01.456881,-5.237302684690803e-05
2025-08-17 01:27:01.457881,2.9444265237543732e-05
2025-08-17 01:27:01.458881,1.8845752492779866e-05
2025-08-17 01:27:01.459881,9.210743883159012e-06
2025-08-17 01:27:01.460881,4.589428215240332e-07
2025-08-17 01:27:01.461881,8.407825589529239e-06
2025-08-17 01:27:01.462881,1.181569132313598e-06
2025-08-17 01:27:01.463881,2.093333750963211e-05
2025-08-17 01:27:01.464881,1.4991748685133643e-05
2025-08-17 01:27:01.465881,3.137126623187214e-05
2025-08-17 01:27:01.466881,2.6473469915799797e-05
2025-08-17 01:27:01.467881,3.996248415205628e-05
2025-08-17 01:27:01.468881,2.767784462776035e-05
2025-08-17 01:27:01.469881,1.659758527239319e-05
2025-08-17 01:27:01.470881,6.480824595200829e-06
2025-08-17 01:27:01.471881,-2.6724355848273262e-06
2025-08-17 01:27:01.472881,5.74845842038485e-08
2025-08-17 01:27:01.473881,-1.2548320228233933e-05
2025-08-17 01:27:01.474881,-1.0300151188857853e-05
2025-08-17 01:27:01.475881,-2.073807809210848e-05
2025-08-17 01:27:01.476881,-2.2584788894164376e-05
2025-08-17 01:27:01.477881,-3.117600499535911e-05
2025-08-17 01:27:01.478881,-7.650523912161589e-06
2025-08-17 01:27:01.479881,-1.776728458935395e-05
2025-08-17 01:27:01.480881,-2.0818370103370398e-05
2025-08-17 01:27:01.481881,-1.387767042615451e-06
2025-08-17 01:27:01.482881,1.1218036888749339e-05
2025-08-17 01:27:01.483881,3.193330849171616e-05
2025-08-17 01:27:01.484881,1.8042836018139496e-05
2025-08-17 01:27:01.485881,2.0531879272311926e-05
2025-08-17 01:27:01.486881,1.3707081961911172e-05
2025-08-17 01:27:01.487881,3.2691541491658427e-06
2025-08-17 01:27:01.488881,5.115864041727036e-06
2025-08-17 01:27:01.489881,-1.736582453304436e-05
2025-08-17 01:27:01.490881,-2.0301013137213886e-06
2025-08-17 01:27:01.491881,-4.386210275697522e-05
2025-08-17 01:27:01.492881,-7.381093018921092e-05
2025-08-17 01:27:01.493881,8.086659363470972e-06
2025-08-17 01:27:01.494881,-3.5556440707296133e-06
2025-08-17 01:27:01.495881,-1.4154154996504076e-05
2025-08-17 01:27:01.496881,1.4750874470337294e-05
2025-08-17 01:27:01.497881,5.999074346618727e-06
2025-08-17 01:27:01.497881,2.687492815311998e-05
2025-08-17 01:27:01.498881,1.8926046323031187e-05
2025-08-17 01:27:01.499881,4.068511043442413e-05
2025-08-17 01:27:01.500881,2.093333750963211e-05
2025-08-17 01:27:01.501881,2.687492815311998e-05
2025-08-17 01:27:01.502881,-4.2426657387295563e-07
2025-08-17 01:27:01.503881,2.430559106869623e-05
2025-08-17 01:27:01.504881,-3.4227094147354364e-05
2025-08-17 01:27:01.505881,-0.00015402238932438195
2025-08-17 01:27:01.506881,-0.00010271595965605229
2025-08-17 01:27:01.507881,6.320240572676994e-06
2025-08-17 01:27:01.508881,2.0451589080039412e-05
2025-08-17 01:27:01.509881,7.604909114888869e-06
2025-08-17 01:27:01.510881,-4.0373952288064174e-06
2025-08-17 01:27:01.511881,6.561116606462747e-06
2025-08-17 01:27:01.512881,1.61961252160836e-05
2025-08-17 01:27:01.513881,2.4947927158791572e-05
2025-08-17 01:27:01.514881,3.2896808988880366e-05
2025-08-17 01:27:01.515881,4.012306817458011e-05
2025-08-17 01:27:01.516881,3.353914507897571e-05
2025-08-17 01:27:01.517881,2.7597554435487837e-05
2025-08-17 01:27:01.518881,2.2137715859571472e-05
2025-08-17 01:27:01.519881,7.364033081103116e-06
2025-08-17 01:27:01.520881,1.1860371159855276e-05
2025-08-17 01:27:01.521881,7.765491318423301e-06
2025-08-17 01:27:01.522881,-1.8168742826674134e-05
2025-08-17 01:27:01.523881,-1.4796489267610013e-05
2025-08-17 01:27:01.524881,-1.7847576600615866e-05
2025-08-17 01:27:01.525881,-1.5117656403162982e-05
2025-08-17 01:27:01.526881,-2.2665080905426294e-05
2025-08-17 01:27:01.527881,-2.0416911866050214e-05
2025-08-17 01:27:01.528881,-1.4154154996504076e-05
2025-08-17 01:27:01.529881,-8.533733307558578e-06
2025-08-17 01:27:01.530881,7.042866855044849e-06
2025-08-17 01:27:01.531881,1.3305621905601583e-05
2025-08-17 01:27:01.532881,1.5152332707657479e-05
2025-08-17 01:27:01.533881,2.374354880885221e-05
2025-08-17 01:27:01.534881,1.5955251001287252e-05
2025-08-17 01:27:01.535881,8.889575838111341e-06
2025-08-17 01:27:01.536881,-1.8339054008720268e-07
2025-08-17 01:27:01.537881,3.2691541491658427e-06
2025-08-17 01:27:01.538881,-2.0301013137213886e-06
2025-08-17 01:27:01.539881,-1.463590615458088e-05
2025-08-17 01:27:01.540881,-2.3227123165270314e-05
2025-08-17 01:27:01.541881,-1.8570201063994318e-05
2025-08-17 01:27:01.542881,-2.274537291668821e-05
2025-08-17 01:27:01.543881,-3.4467968362150714e-05
2025-08-17 01:27:01.544881,-1.720524232950993e-05
2025-08-17 01:27:01.545881,-2.4030041458900087e-05
2025-08-17 01:27:01.546881,7.364033081103116e-06
2025-08-17 01:27:01.547881,1.1860371159855276e-05
2025-08-17 01:27:01.547881,3.429737262194976e-06
2025-08-17 01:27:01.548881,1.57143749675015e-05
2025-08-17 01:27:01.549881,1.9407794752623886e-05
2025-08-17 01:27:01.550881,9.29103589442093e-06
2025-08-17 01:27:01.551881,1.3777568597106438e-07
2025-08-17 01:27:01.552881,-2.5921435735654086e-06
2025-08-17 01:27:01.553881,4.9552818381926045e-06
2025-08-17 01:27:01.554881,-2.9570170227088965e-05
2025-08-17 01:27:01.555881,-0.00010384004417574033
2025-08-17 01:27:01.556881,-7.196421938715503e-05
2025-08-17 01:27:01.557881,3.4261767723364756e-05
2025-08-17 01:27:01.558881,2.013042103499174e-05
2025-08-17 01:27:01.559881,7.283741069841199e-06
2025-08-17 01:27:01.560881,-4.358561909612035e-06
2025-08-17 01:27:01.561881,6.239948561415076e-06
2025-08-17 01:27:01.562881,1.5874958990025334e-05
2025-08-17 01:27:01.563881,2.46267591137439e-05
2025-08-17 01:27:01.564881,3.2575640943832695e-05
2025-08-17 01:27:01.565881,3.980190012953244e-05
2025-08-17 01:27:01.566881,3.321797703392804e-05
2025-08-17 01:27:01.567881,2.7276386390440166e-05
2025-08-17 01:27:01.568881,1.0896870662691072e-05
2025-08-17 01:27:01.569881,5.999074346618727e-06
2025-08-17 01:27:01.570881,1.0495412425370887e-05
2025-08-17 01:27:01.571881,6.4005325839389116e-06
2025-08-17 01:27:01.572881,-4.679729045165004e-06
2025-08-17 01:27:01.573881,-2.1540996385738254e-05
2025-08-17 01:27:01.574881,-2.4592083718744107e-05
2025-08-17 01:27:01.575881,-2.186216261179652e-05
2025-08-17 01:27:01.576881,-1.937311935762409e-05
2025-08-17 01:27:01.577881,-1.2548320228233933e-05
2025-08-17 01:27:01.577881,-1.0460735211381689e-05
2025-08-17 01:27:01.578881,2.7874039005837403e-06
2025-08-17 01:27:01.579881,1.4831166481599212e-05
2025-08-17 01:27:01.580881,3.209389251424e-05
2025-08-17 01:27:01.581881,2.9845723474863917e-05
2025-08-17 01:27:01.582881,1.5232624718919396e-05
2025-08-17 01:27:01.583881,9.612202120479196e-06
2025-08-17 01:27:01.584881,1.0209851097897626e-06
2025-08-17 01:27:01.585881,-3.635936081991531e-06
2025-08-17 01:27:01.586881,-7.811107025190722e-06
2025-08-17 01:27:01.587881,-1.6884074284462258e-05
2025-08-17 01:27:01.588881,-2.748258521023672e-05
2025-08-17 01:27:01.589881,-2.611762647575233e-05
2025-08-17 01:27:01.590881,-2.226362266810611e-05
2025-08-17 01:27:01.591881,-2.812491948134266e-05
2025-08-17 01:27:01.592881,-1.2146861081419047e-05
2025-08-17 01:27:01.593881,-9.898692951537669e-06
2025-08-17 01:27:01.594881,-7.811107025190722e-06
2025-08-17 01:27:01.595881,1.3064747690805234e-05
2025-08-17 01:27:01.596881,-6.365855369949713e-06
2025-08-17 01:27:01.596881,-2.0657787899835967e-05
2025-08-17 01:27:01.597881,1.732020973577164e-05
2025-08-17 01:27:01.598881,1.1860371159855276e-05
2025-08-17 01:27:01.599881,6.9625748437829316e-06
2025-08-17 01:27:01.600881,2.4662367650307715e-06
2025-08-17 01:27:01.601881,6.561116606462747e-06
2025-08-17 01:27:01.602881,-4.51914547738852e-06
2025-08-17 01:27:01.603881,-7.89139903645264e-06
2025-08-17 01:27:01.604881,-2.9329296012292616e-05
2025-08-17 01:27:01.605881,-2.105924613715615e-05
2025-08-17 01:27:01.606881,-2.860666972992476e-05
2025-08-17 01:27:01.607881,-2.1781872419524007e-05
2025-08-17 01:27:01.608881,-1.1343943697283976e-05
2025-08-17 01:27:01.609881,-5.7235215535911266e-06
2025-08-17 01:27:01.610881,2.867695911845658e-06
2025-08-17 01:27:01.611881,1.0655994628905319e-05
2025-08-17 01:27:01.612881,-1.070161033567274e-05
2025-08-17 01:27:01.613881,-5.678907473338768e-05
2025-08-17 01:27:01.614881,-1.0621318324410822e-05
2025-08-17 01:27:01.615881,6.734196358593181e-05
2025-08-17 01:27:01.616881,3.546614607330412e-05
2025-08-17 01:27:01.617881,2.5831133825704455e-05
2025-08-17 01:27:01.618881,1.7079335520975292e-05
2025-08-17 01:27:01.619881,9.130451871897094e-06
2025-08-17 01:27:01.620881,1.9041945051867515e-06
2025-08-17 01:27:01.621881,8.488117600791156e-06
2025-08-17 01:27:01.622881,2.546528776292689e-06
2025-08-17 01:27:01.623881,-1.3832987860951107e-05
2025-08-17 01:27:01.624881,-8.935191544878762e-06
2025-08-17 01:27:01.625881,-4.438853466126602e-06
2025-08-17 01:27:01.626881,-3.43974562611038e-07
2025-08-17 01:27:01.627881,1.0736286640167236e-05
2025-08-17 01:27:01.628881,2.7597554435487837e-05
2025-08-17 01:27:01.629881,2.4546468921471387e-05
2025-08-17 01:27:01.630881,3.281651879660785e-05
2025-08-17 01:27:01.631881,2.0210714865243062e-05
2025-08-17 01:27:01.632881,8.72899363457691e-06
2025-08-17 01:27:01.633881,2.4662367650307715e-06
2025-08-17 01:27:01.634881,6.195268156261591e-07
2025-08-17 01:27:01.635881,-1.066599907062482e-06
2025-08-17 01:27:01.636881,-8.854899533616845e-06
2025-08-17 01:27:01.637881,-1.8730785086518154e-05
2025-08-17 01:27:01.638881,-1.7446116544306278e-05
2025-08-17 01:27:01.639881,-2.563587622717023e-05
2025-08-17 01:27:01.640881,-2.667966873559635e-05
2025-08-17 01:27:01.641881,-2.186216261179652e-05
2025-08-17 01:27:01.642881,-8.614024409325793e-06
2025-08-17 01:27:01.643881,-6.7673145167646e-06
2025-08-17 01:27:01.644881,5.2764480642508715e-06
2025-08-17 01:27:01.645881,1.3064747690805234e-05
2025-08-17 01:27:01.646881,2.5911427655955777e-05
2025-08-17 01:27:01.646881,2.0451589080039412e-05
2025-08-17 01:27:01.647881,1.1860371159855276e-05
2025-08-17 01:27:01.648881,7.203449058579281e-06
2025-08-17 01:27:01.649881,1.3777568597106438e-07
2025-08-17 01:27:01.650881,-1.1468919183243997e-06
2025-08-17 01:27:01.651881,-1.6482616047142074e-05
2025-08-17 01:27:01.652881,-1.8570201063994318e-05
2025-08-17 01:27:01.653881,-4.7073772293515503e-05
2025-08-17 01:27:01.654881,-0.00010849696263903752
2025-08-17 01:27:01.655881,-4.699347846326418e-05
2025-08-17 01:27:01.656881,2.486763332854025e-05
2025-08-17 01:27:01.657881,3.450264557613991e-05
2025-08-17 01:27:01.658881,2.575084363343194e-05
2025-08-17 01:27:01.659881,1.7801959984353743e-05
2025-08-17 01:27:01.660881,3.956102591473609e-05
2025-08-17 01:27:01.661881,3.297710281913169e-05
2025-08-17 01:27:01.662881,3.891868982464075e-05
2025-08-17 01:27:01.663881,3.3458851248724386e-05
2025-08-17 01:27:01.664881,2.856105493265204e-05
2025-08-17 01:27:01.665881,1.5072040696395561e-05
2025-08-17 01:27:01.666881,2.7874039005837403e-06
2025-08-17 01:27:01.667881,6.480824595200829e-06
2025-08-17 01:27:01.668881,-3.635936081991531e-06
2025-08-17 01:27:01.669881,-6.687022505502682e-06
2025-08-17 01:27:01.670881,-1.4957072380639147e-05
2025-08-17 01:27:01.671881,-3.775993172894232e-05
2025-08-17 01:27:01.672881,-1.6322032024618238e-05
2025-08-17 01:27:01.673881,-3.0212504498194903e-05
2025-08-17 01:27:01.674881,-1.2548320228233933e-05
2025-08-17 01:27:01.675881,3.510029273456894e-06
2025-08-17 01:27:01.676881,1.4224442566046491e-06
2025-08-17 01:27:01.677881,2.2298299882095307e-05
2025-08-17 01:27:01.678881,2.5028217351064086e-05
2025-08-17 01:27:01.679881,2.7517260605236515e-05
2025-08-17 01:27:01.680881,1.603554301254917e-05
2025-08-17 01:27:01.681881,5.597614290309139e-06
2025-08-17 01:27:01.682881,-3.876811206282582e-06
2025-08-17 01:27:01.683881,4.7144058044068515e-06
2025-08-17 01:27:01.684881,5.74845842038485e-08
2025-08-17 01:27:01.685881,-9.818400940275751e-06
2025-08-17 01:27:01.686881,-1.6322032024618238e-05
2025-08-17 01:27:01.687881,-2.218333065684419e-05
2025-08-17 01:27:01.688881,-3.181834108545445e-05
2025-08-17 01:27:01.689881,-3.832197398878634e-05
2025-08-17 01:27:01.690881,-2.298624713148456e-05
2025-08-17 01:27:01.691881,-8.373149285034742e-06
2025-08-17 01:27:01.692881,-1.0219859177595936e-05
2025-08-17 01:27:01.693881,1.8239024939248338e-06
2025-08-17 01:27:01.694881,2.5349385396111757e-05
2025-08-17 01:27:01.695881,2.8721638955175877e-05
2025-08-17 01:27:01.696881,1.956837877514772e-05
2025-08-17 01:27:01.696881,6.320240572676994e-06
2025-08-17 01:27:01.697881,3.5903212847188115e-06
2025-08-17 01:27:01.698881,6.079364538891241e-06
2025-08-17 01:27:01.699881,8.327533578267321e-06
2025-08-17 01:27:01.700881,-1.0541026313148905e-05
2025-08-17 01:27:01.701881,-1.8088450815412216e-05
2025-08-17 01:27:01.702881,-2.0336619854788296e-05
2025-08-17 01:27:01.703881,-2.6599376724334434e-05
2025-08-17 01:27:01.704881,-5.510294795385562e-05
2025-08-17 01:27:01.705881,-0.00011652613466139883
2025-08-17 01:27:01.706881,-9.019044227898121e-05
2025-08-17 01:27:01.707881,2.9604849260067567e-05
2025-08-17 01:27:01.708881,1.2502705430961214e-05
2025-08-17 01:27:01.709881,2.8079302865080535e-05
2025-08-17 01:27:01.710881,4.221065319143236e-05
2025-08-17 01:27:01.711881,5.50573349755723e-05
2025-08-17 01:27:01.712881,4.341502790339291e-05
2025-08-17 01:27:01.713881,3.281651879660785e-05
2025-08-17 01:27:01.714881,2.318150654900819e-05
2025-08-17 01:27:01.715881,3.193330849171616e-05
2025-08-17 01:27:01.716881,8.006367352209054e-06
2025-08-17 01:27:01.717881,7.801099286552926e-07
2025-08-17 01:27:01.718881,-5.803813564853044e-06
2025-08-17 01:27:01.719881,-1.1745402844098862e-05
2025-08-17 01:27:01.720881,-1.720524232950993e-05
2025-08-17 01:27:01.721881,-2.2103038645582274e-05
2025-08-17 01:27:01.722881,-1.7606700566830114e-05
2025-08-17 01:27:01.723881,-5.322062861523591e-06
2025-08-17 01:27:01.724881,-1.628642166906502e-06
2025-08-17 01:27:01.725881,1.743611392157618e-06
2025-08-17 01:27:01.726881,1.7079335520975292e-05
2025-08-17 01:27:01.727881,2.5349385396111757e-05
2025-08-17 01:27:01.728881,2.2860342141939327e-05
2025-08-17 01:27:01.729881,1.603554301254917e-05
2025-08-17 01:27:01.730881,1.4224442566046491e-06
2025-08-17 01:27:01.731881,-2.7081126972916536e-05
2025-08-17 01:27:01.732881,1.5830273696337827e-06
2025-08-17 01:27:01.733881,2.013042103499174e-05
2025-08-17 01:27:01.734881,1.675816747592762e-05
2025-08-17 01:27:01.735881,-1.0942485459963791e-05
2025-08-17 01:27:01.736881,1.3777568597106438e-07
2025-08-17 01:27:01.737881,-9.978984053304885e-06
2025-08-17 01:27:01.738881,-6.927897629793733e-06
2025-08-17 01:27:01.739881,1.3421522453427315e-06
2025-08-17 01:27:01.740881,3.8311973185045645e-06
2025-08-17 01:27:01.741881,1.5830273696337827e-06
2025-08-17 01:27:01.742881,1.61961252160836e-05
2025-08-17 01:27:01.743881,2.5670553441159427e-05
2025-08-17 01:27:01.744881,3.4261767723364756e-05
2025-08-17 01:27:01.745881,1.6999043509713374e-05
2025-08-17 01:27:01.746881,1.0174244380323216e-05
2025-08-17 01:27:01.746881,9.531910109217279e-06
2025-08-17 01:27:01.747881,7.444325092365034e-06
2025-08-17 01:27:01.748881,1.8239024939248338e-06
2025-08-17 01:27:01.749881,-3.314768946438562e-06
2025-08-17 01:27:01.750881,-1.7892261894303374e-06
2025-08-17 01:27:01.751881,-2.3146831154008396e-05
2025-08-17 01:27:01.752881,-1.3993571883474942e-05
2025-08-17 01:27:01.753881,-5.5825574236223474e-05
2025-08-17 01:27:01.754881,-0.00014575233217328787
2025-08-17 01:27:01.755881,-0.00010721229773480445
2025-08-17 01:27:01.756881,-1.949809302459471e-06
2025-08-17 01:27:01.757881,4.0444232581648976e-05
2025-08-17 01:27:01.758881,2.7597554435487837e-05
2025-08-17 01:27:01.759881,6.26047549303621e-05
2025-08-17 01:27:01.760881,5.200624218559824e-05
2025-08-17 01:27:01.761881,4.237123721395619e-05
2025-08-17 01:27:01.762881,3.361943527124822e-05
2025-08-17 01:27:01.763881,2.5670553441159427e-05
2025-08-17 01:27:01.764881,1.844429425545968e-05
2025-08-17 01:27:01.765881,-1.3074750313535333e-06
2025-08-17 01:27:01.766881,4.634113793144934e-06
2025-08-17 01:27:01.767881,-8.257248396148498e-07
2025-08-17 01:27:01.768881,-5.7235215535911266e-06
2025-08-17 01:27:01.769881,-1.0219859177595936e-05
2025-08-17 01:27:01.770881,-2.250449688290246e-05
2025-08-17 01:27:01.771881,-1.881107709778007e-05
2025-08-17 01:27:01.772881,-1.543882353871595e-05
2025-08-17 01:27:01.773881,-1.23877371152048e-05
2025-08-17 01:27:01.774881,1.502735358371865e-06
2025-08-17 01:27:01.775881,9.050159860635176e-06
2025-08-17 01:27:01.776881,2.5108511181315407e-05
2025-08-17 01:27:01.777881,2.7196096198167652e-05
2025-08-17 01:27:01.778881,2.1575673599727452e-05
2025-08-17 01:27:01.779881,1.6437001249869354e-05
2025-08-17 01:27:01.780881,-8.257248396148498e-07
2025-08-17 01:27:01.781881,-3.073893822147511e-06
2025-08-17 01:27:01.782881,-9.336650691693649e-06
2025-08-17 01:27:01.783881,-1.1183360584254842e-05
2025-08-17 01:27:01.784881,-1.6322032024618238e-05
2025-08-17 01:27:01.785881,-2.724171099544037e-05
2025-08-17 01:27:01.786881,-2.587675044196658e-05
2025-08-17 01:27:01.787881,-2.7161418984178454e-05
2025-08-17 01:27:01.788881,-2.3708873413852416e-05
2025-08-17 01:27:01.789881,-2.057749588857405e-05
2025-08-17 01:27:01.790881,-6.044688689144095e-06
2025-08-17 01:27:01.791881,2.1806769723298203e-07
2025-08-17 01:27:01.792881,1.3466205928125419e-05
2025-08-17 01:27:01.793881,2.205742202932015e-05
2025-08-17 01:27:01.794881,2.9845723474863917e-05
2025-08-17 01:27:01.795881,8.488117600791156e-06
2025-08-17 01:27:01.796881,5.437032086774707e-06
2025-08-17 01:27:01.796881,2.1806769723298203e-07
2025-08-17 01:27:01.797881,-2.511851562303491e-06
2025-08-17 01:27:01.798881,-5.000895725970622e-06
2025-08-17 01:27:01.799881,-2.105924613715615e-05
2025-08-17 01:27:01.800881,-2.3146831154008396e-05
2025-08-17 01:27:01.801881,-2.13001203519525e-05
2025-08-17 01:27:01.802881,-1.2708903341263067e-05
2025-08-17 01:27:01.803881,-3.623438533395529e-05
2025-08-17 01:27:01.804881,-8.689848618814722e-05
2025-08-17 01:27:01.805881,-0.00010865754302358255
2025-08-17 01:27:01.806881,-9.657817827246618e-06
2025-08-17 01:27:01.807881,3.273622496635653e-05
2025-08-17 01:27:01.808881,4.558290675049648e-05
2025-08-17 01:27:01.809881,5.7225206546718255e-05
2025-08-17 01:27:01.810881,4.6626697439933196e-05
2025-08-17 01:27:01.811881,3.699168883031234e-05
2025-08-17 01:27:01.812881,2.823988688760437e-05
2025-08-17 01:27:01.813881,2.0291005057515576e-05
2025-08-17 01:27:01.814881,1.3064747690805234e-05
2025-08-17 01:27:01.815881,6.480824595200829e-06
2025-08-17 01:27:01.816881,-1.1424235708545893e-05
2025-08-17 01:27:01.817881,-1.6884074284462258e-05
2025-08-17 01:27:01.818881,-1.1986277968389913e-05
2025-08-17 01:27:01.819881,-1.6482616047142074e-05
2025-08-17 01:27:01.820881,-3.695701161632314e-05
2025-08-17 01:27:01.821881,-1.1022777471225709e-05
2025-08-17 01:27:01.822881,5.8384903240948915e-06
2025-08-17 01:27:01.823881,8.889575838111341e-06
2025-08-17 01:27:01.824881,1.715962753223721e-05
2025-08-17 01:27:01.825881,2.9765429644612595e-05
2025-08-17 01:27:01.826881,2.294063233421184e-05
2025-08-17 01:27:01.827881,2.0853047317359596e-05
2025-08-17 01:27:01.828881,1.5232624718919396e-05
2025-08-17 01:27:01.829881,6.641406798735261e-06
2025-08-17 01:27:01.830881,8.16695137473289e-06
2025-08-17 01:27:01.831881,-4.679729045165004e-06
2025-08-17 01:27:01.832881,-6.365855369949713e-06
2025-08-17 01:27:01.833881,-1.7285534340771846e-05
2025-08-17 01:27:01.834881,-2.1460704374476336e-05
2025-08-17 01:27:01.835881,-2.7964335458818823e-05
2025-08-17 01:27:01.836881,-3.6154095141682774e-05
2025-08-17 01:27:01.837881,-2.0176037651253864e-05
2025-08-17 01:27:01.838881,-4.117686330573633e-06
2025-08-17 01:27:01.839881,-1.0380443200119771e-05
2025-08-17 01:27:01.840881,2.867695911845658e-06
2025-08-17 01:27:01.841881,1.844429425545968e-05
2025-08-17 01:27:01.842881,2.0531879272311926e-05
2025-08-17 01:27:01.843881,2.237859007436782e-05
2025-08-17 01:27:01.844881,6.801990821259096e-06
2025-08-17 01:27:01.845881,5.392348043642414e-07
2025-08-17 01:27:01.846881,-1.3074750313535333e-06
2025-08-17 01:27:01.846881,-6.20527225692058e-06
2025-08-17 01:27:01.847881,-4.51914547738852e-06
2025-08-17 01:27:01.848881,-9.176066669169813e-06
2025-08-17 01:27:01.849881,-3.0533672543242574e-05
2025-08-17 01:27:01.850881,-2.748258521023672e-05
2025-08-17 01:27:01.851881,-3.0212504498194903e-05
2025-08-17 01:27:01.852881,-1.7606700566830114e-05
2025-08-17 01:27:01.853881,-5.2132152632111683e-05
2025-08-17 01:27:01.854881,-0.00012640202476177365
2025-08-17 01:27:01.855881,-5.197156860958785e-05
2025-08-17 01:27:01.856881,5.425441122497432e-05
2025-08-17 01:27:01.857881,4.012306817458011e-05
2025-08-17 01:27:01.858881,5.296974632074125e-05
2025-08-17 01:27:01.859881,4.1327442886540666e-05
2025-08-17 01:27:01.860881,5.1925951993325725e-05
2025-08-17 01:27:01.861881,2.3020922526484355e-05
2025-08-17 01:27:01.862881,1.4269124221755192e-05
2025-08-17 01:27:01.863881,2.2218006051843986e-05
2025-08-17 01:27:01.864881,4.589428215240332e-07
2025-08-17 01:27:01.865881,-6.124980245658662e-06
2025-08-17 01:27:01.866881,-1.8339054008720268e-07
2025-08-17 01:27:01.867881,-2.748258521023672e-05
2025-08-17 01:27:01.868881,-1.2708903341263067e-05
2025-08-17 01:27:01.869881,-1.720524232950993e-05
2025-08-17 01:27:01.870881,-1.3110362488077953e-05
2025-08-17 01:27:01.871881,-2.0301013137213886e-06
2025-08-17 01:27:01.872881,1.3421522453427315e-06
2025-08-17 01:27:01.873881,1.6677875464665703e-05
2025-08-17 01:27:01.874881,1.9407794752623886e-05
2025-08-17 01:27:01.875881,2.1896841644775122e-05
2025-08-17 01:27:01.876881,1.9648672605399042e-05
2025-08-17 01:27:01.877881,1.3385913916863501e-05
2025-08-17 01:27:01.878881,3.9114875107770786e-06
2025-08-17 01:27:01.879881,-4.679729045165004e-06
2025-08-17 01:27:01.880881,-6.20527225692058e-06
2025-08-17 01:27:01.881881,-1.608115780982189e-05
2025-08-17 01:27:01.882881,-1.4796489267610013e-05
2025-08-17 01:27:01.883881,-2.5395000193384476e-05
2025-08-17 01:27:01.884881,-2.675996074685827e-05
2025-08-17 01:27:01.885881,-3.061396273551509e-05
2025-08-17 01:27:01.886881,-1.768699257809203e-05
2025-08-17 01:27:01.887881,-5.64322999707656e-06
2025-08-17 01:27:01.888881,-9.863088052952662e-07
2025-08-17 01:27:01.889881,-2.3512684492743574e-06
2025-08-17 01:27:01.890881,1.4590290447813459e-05
2025-08-17 01:27:01.891881,2.6072011678479612e-05
2025-08-17 01:27:01.892881,2.3984426661627367e-05
2025-08-17 01:27:01.893881,1.0736286640167236e-05
2025-08-17 01:27:01.894881,1.2422413419699296e-05
2025-08-17 01:27:01.895881,-7.971691047714557e-06
2025-08-17 01:27:01.896881,-1.624174001335632e-05
2025-08-17 01:27:01.896881,-2.9936018108855933e-06
2025-08-17 01:27:01.897881,-1.0541026313148905e-05
2025-08-17 01:27:01.898881,-8.292857273772825e-06
2025-08-17 01:27:01.899881,-2.2905956939212047e-05
2025-08-17 01:27:01.900881,-2.105924613715615e-05
2025-08-17 01:27:01.901881,-2.9650462238350883e-05
2025-08-17 01:27:01.902881,-1.551911554997787e-05
2025-08-17 01:27:01.903881,-4.4022686779499054e-05
2025-08-17 01:27:01.904881,-0.00010544587712502107
2025-08-17 01:27:01.905881,-2.635850069054868e-05
2025-08-17 01:27:01.906881,6.934926204849035e-05
2025-08-17 01:27:01.907881,5.65025802643504e-05
2025-08-17 01:27:01.908881,4.486028046812862e-05
2025-08-17 01:27:01.909881,3.4261767723364756e-05
2025-08-17 01:27:01.910881,2.46267591137439e-05
2025-08-17 01:27:01.911881,1.5874958990025334e-05
2025-08-17 01:27:01.912881,2.3823842639103532e-05
2025-08-17 01:27:01.913881,2.064777618215885e-06
2025-08-17 01:27:01.914881,8.648701623314992e-06
2025-08-17 01:27:01.915881,-2.13001203519525e-05
2025-08-17 01:27:01.916881,-1.5840281776036136e-05
2025-08-17 01:27:01.917881,-2.073807809210848e-05
2025-08-17 01:27:01.918881,-1.624174001335632e-05
2025-08-17 01:27:01.919881,-1.2146861081419047e-05
2025-08-17 01:27:01.920881,-1.066599907062482e-06
2025-08-17 01:27:01.921881,9.050159860635176e-06
2025-08-17 01:27:01.922881,1.8203420040663332e-05
2025-08-17 01:27:01.923881,2.6473469915799797e-05
2025-08-17 01:27:01.924881,2.8962513169972226e-05
2025-08-17 01:27:01.925881,2.6714344130596146e-05
2025-08-17 01:27:01.926881,7.845783329685219e-06
2025-08-17 01:27:01.927881,5.356740075512789e-06
2025-08-17 01:27:01.928881,-1.4680590538773686e-06
2025-08-17 01:27:01.929881,-1.1905985957127996e-05
2025-08-17 01:27:01.930881,-1.3752696759183891e-05
2025-08-17 01:27:01.931881,-1.889136910904199e-05
2025-08-17 01:27:01.932881,-2.667966873559635e-05
2025-08-17 01:27:01.933881,-2.250449688290246e-05
2025-08-17 01:27:01.934881,-2.635850069054868e-05
2025-08-17 01:27:01.935881,-1.3431529623630922e-05
2025-08-17 01:27:01.936881,-1.1745402844098862e-05
2025-08-17 01:27:01.937881,-1.3270945601107087e-05
2025-08-17 01:27:01.938881,-4.2426657387295563e-07
2025-08-17 01:27:01.939881,1.1619496945058927e-05
2025-08-17 01:27:01.940881,2.8882222977699712e-05
2025-08-17 01:27:01.941881,2.6634053938323632e-05
2025-08-17 01:27:01.942881,2.4546468921471387e-05
2025-08-17 01:27:01.943881,1.5072040696395561e-05
2025-08-17 01:27:01.944881,-7.409648333123187e-06
2025-08-17 01:27:01.945881,-4.358561909612035e-06
2025-08-17 01:27:01.946881,-7.088481197570218e-06
2025-08-17 01:27:01.946881,-1.4234447007765993e-05
2025-08-17 01:27:01.947881,-1.6723492080927826e-05
2025-08-17 01:27:01.948881,-1.8971661120303907e-05
2025-08-17 01:27:01.949881,-2.523441617086064e-05
2025-08-17 01:27:01.950881,-3.0854840588290244e-05
2025-08-17 01:27:01.951881,-1.881107709778007e-05
2025-08-17 01:27:01.952881,1.5830273696337827e-06
2025-08-17 01:27:01.953881,-4.024897498311475e-05
2025-08-17 01:27:01.954881,-0.00013017572928220034
2025-08-17 01:27:01.955881,-4.016868115286343e-05
2025-08-17 01:27:01.956881,6.509379454655573e-05
2025-08-17 01:27:01.957881,5.096245513414033e-05
2025-08-17 01:27:01.958881,3.811577335000038e-05
2025-08-17 01:27:01.959881,2.6473469915799797e-05
2025-08-17 01:27:01.960881,3.7071979022584856e-05
2025-08-17 01:27:01.961881,8.16695137473289e-06
2025-08-17 01:27:01.962881,-5.848497153237986e-07
2025-08-17 01:27:01.963881,7.364033081103116e-06
2025-08-17 01:27:01.964881,1.3777568597106438e-07
2025-08-17 01:27:01.965881,-6.446147381211631e-06
2025-08-17 01:27:01.966881,-1.23877371152048e-05
2025-08-17 01:27:01.967881,-6.927897629793733e-06
2025-08-17 01:27:01.968881,-1.182569485536078e-05
2025-08-17 01:27:01.969881,-7.32935677660862e-06
2025-08-17 01:27:01.970881,-1.1424235708545893e-05
2025-08-17 01:27:01.971881,-2.9971630283398554e-05
2025-08-17 01:27:01.972881,-8.063572749961168e-05
2025-08-17 01:27:01.973881,2.8320180717855692e-05
2025-08-17 01:27:01.974881,4.389677997096442e-05
2025-08-17 01:27:01.975881,5.8028123021358624e-05
2025-08-17 01:27:01.976881,1.9488088582875207e-05
2025-08-17 01:27:01.977881,3.113039201707579e-05
2025-08-17 01:27:01.978881,2.0531879272311926e-05
2025-08-17 01:27:01.979881,-8.373149285034742e-06
2025-08-17 01:27:01.980881,3.7865081026211556e-07
2025-08-17 01:27:01.981881,-7.570231900899671e-06
2025-08-17 01:27:01.982881,-1.4796489267610013e-05
2025-08-17 01:27:01.983881,-2.1380412363214418e-05
2025-08-17 01:27:01.984881,-1.543882353871595e-05
2025-08-17 01:27:01.985881,9.406930416844261e-07
2025-08-17 01:27:01.986881,5.8384903240948915e-06
2025-08-17 01:27:01.987881,1.3421522453427315e-06
2025-08-17 01:27:01.988881,2.18165478145238e-05
2025-08-17 01:27:01.989881,1.8123128029401414e-05
2025-08-17 01:27:01.990881,1.4750874470337294e-05
2025-08-17 01:27:01.991881,1.1699787137331441e-05
2025-08-17 01:27:01.992881,1.4429706425289623e-05
2025-08-17 01:27:01.993881,1.8239024939248338e-06
2025-08-17 01:27:01.994881,4.072071533300914e-06
2025-08-17 01:27:01.995881,-6.365855369949713e-06
2025-08-17 01:27:01.996881,-8.212566172005609e-06
2025-08-17 01:27:01.996881,-1.8730785086518154e-05
2025-08-17 01:27:01.997881,-1.7044658306986094e-05
2025-08-17 01:27:01.998881,-2.170158040826209e-05
2025-08-17 01:27:01.999881,-3.735846985364333e-05
2025-08-17 01:27:02.000881,-1.84899090527324e-05
2025-08-17 01:27:02.001881,-1.0942485459963791e-05
2025-08-17 01:27:02.002881,-4.117686330573633e-06
2025-08-17 01:27:02.003881,1.4750874470337294e-05
2025-08-17 01:27:02.004881,-2.3227123165270314e-05
2025-08-17 01:27:02.005881,-0.0001051247090799734
2025-08-17 01:27:02.006881,-2.330741517653223e-05
2025-08-17 01:27:02.007881,7.24003475625068e-05
2025-08-17 01:27:02.008881,3.386030948604457e-05
2025-08-17 01:27:02.009881,4.5502612920245156e-05
2025-08-17 01:27:02.010881,1.3626789950649254e-05
2025-08-17 01:27:02.011881,3.991779522038996e-06
2025-08-17 01:27:02.012881,1.2743579645757563e-05
2025-08-17 01:27:02.013881,-1.1183360584254842e-05
2025-08-17 01:27:02.014881,-3.9571032175445e-06
2025-08-17 01:27:02.015881,-1.0541026313148905e-05
2025-08-17 01:27:02.016881,-1.6482616047142074e-05
2025-08-17 01:27:02.017881,-1.030994383199868e-07
2025-08-17 01:27:02.018881,4.794697815668769e-06
2025-08-17 01:27:02.019881,9.29103589442093e-06
2025-08-17 01:27:02.020881,1.3385913916863501e-05
2025-08-17 01:27:02.021881,2.4466175091220066e-05
2025-08-17 01:27:02.022881,2.7838428650284186e-05
2025-08-17 01:27:02.023881,2.4787343136267737e-05
2025-08-17 01:27:02.024881,1.6517293261131272e-05
2025-08-17 01:27:02.025881,8.969867849373259e-06
2025-08-17 01:27:02.026881,6.721698809997179e-06
2025-08-17 01:27:02.027881,4.589428215240332e-07
2025-08-17 01:27:02.028881,-1.387767042615451e-06
2025-08-17 01:27:02.029881,-2.386945743637625e-05
2025-08-17 01:27:02.030881,-2.69205429503927e-05
2025-08-17 01:27:02.031881,-2.9650462238350883e-05
2025-08-17 01:27:02.032881,-2.2103038645582274e-05
2025-08-17 01:27:02.033881,-2.892783777497243e-05
2025-08-17 01:27:02.034881,-1.4314739019027911e-05
2025-08-17 01:27:02.035881,-1.066599907062482e-06
2025-08-17 01:27:02.036881,4.072071533300914e-06
2025-08-17 01:27:02.037881,5.597614290309139e-06
2025-08-17 01:27:02.038881,2.6955218345392495e-05
2025-08-17 01:27:02.039881,1.7801959984353743e-05
2025-08-17 01:27:02.040881,1.5072040696395561e-05
2025-08-17 01:27:02.041881,7.5246171036269516e-06
2025-08-17 01:27:02.042881,6.99817917393375e-07
2025-08-17 01:27:02.043881,-9.738108929013833e-06
2025-08-17 01:27:02.044881,-7.89139903645264e-06
2025-08-17 01:27:02.045881,-3.382563591003418e-05
2025-08-17 01:27:02.046881,-3.0132212486932985e-05
2025-08-17 01:27:02.046881,-7.489939889637753e-06
2025-08-17 01:27:02.047881,-2.4351207684958354e-05
2025-08-17 01:27:02.048881,-2.7402293198974803e-05
2025-08-17 01:27:02.049881,-2.467237391101662e-05
2025-08-17 01:27:02.050881,-1.8695172911975533e-06
2025-08-17 01:27:02.051881,7.283741069841199e-06
2025-08-17 01:27:02.052881,4.553821781883016e-06
2025-08-17 01:27:02.053881,1.715962753223721e-05
2025-08-17 01:27:02.054881,-8.132274160743691e-06
2025-08-17 01:27:02.055881,-5.87963659199886e-05
2025-08-17 01:27:02.056881,-8.055543730733916e-05
2025-08-17 01:27:02.057881,1.844429425545968e-05
2025-08-17 01:27:02.058881,3.2575640943832695e-05
2025-08-17 01:27:02.059881,1.9728962797671556e-05
2025-08-17 01:27:02.060881,3.137126623187214e-05
2025-08-17 01:27:02.061881,2.0772757125087082e-05
2025-08-17 01:27:02.062881,1.1137744877487421e-05
2025-08-17 01:27:02.063881,2.385944753768854e-06
2025-08-17 01:27:02.064881,-5.562937985814642e-06
2025-08-17 01:27:02.065881,-1.2789195352524985e-05
2025-08-17 01:27:02.066881,6.9625748437829316e-06
2025-08-17 01:27:02.067881,1.0209851097897626e-06
2025-08-17 01:27:02.068881,6.480824595200829e-06
2025-08-17 01:27:02.069881,1.1378620911273174e-05
2025-08-17 01:27:02.070881,3.386030948604457e-05
2025-08-17 01:27:02.071881,2.9765429644612595e-05
2025-08-17 01:27:02.072881,1.868516847025603e-05
2025-08-17 01:27:02.073881,1.5312916730181314e-05
2025-08-17 01:27:02.074881,1.8364002244197764e-05
2025-08-17 01:27:02.075881,-1.066599907062482e-06
2025-08-17 01:27:02.076881,1.4224442566046491e-06
2025-08-17 01:27:02.077881,-1.0059276064566802e-05
2025-08-17 01:27:02.078881,-2.049720387731213e-05
2025-08-17 01:27:02.079881,-2.611762647575233e-05
2025-08-17 01:27:02.080881,-2.780375325528439e-05
2025-08-17 01:27:02.081881,-2.9329296012292616e-05
2025-08-17 01:27:02.082881,-2.5154125978588127e-05
2025-08-17 01:27:02.083881,-1.3431529623630922e-05
2025-08-17 01:27:02.084881,-8.774608431849629e-06
2025-08-17 01:27:02.085881,4.072071533300914e-06
2025-08-17 01:27:02.086881,1.9648672605399042e-05
2025-08-17 01:27:02.087881,2.1736257622251287e-05
2025-08-17 01:27:02.088881,2.3582964786328375e-05
2025-08-17 01:27:02.089881,1.844429425545968e-05
2025-08-17 01:27:02.090881,7.5246171036269516e-06
2025-08-17 01:27:02.091881,-5.322062861523591e-06
2025-08-17 01:27:02.092881,-3.635936081991531e-06
2025-08-17 01:27:02.093881,-8.292857273772825e-06
2025-08-17 01:27:02.094881,-1.8168742826674134e-05
2025-08-17 01:27:02.095881,-2.467237391101662e-05
2025-08-17 01:27:02.096881,-1.6482616047142074e-05
2025-08-17 01:27:02.096881,-2.419062366243452e-05
2025-08-17 01:27:02.097881,-3.15774668706581e-05
2025-08-17 01:27:02.098881,-1.7044658306986094e-05
2025-08-17 01:27:02.099881,-1.9132243323838338e-05
2025-08-17 01:27:02.100881,-2.0301013137213886e-06
2025-08-17 01:27:02.101881,9.451618097955361e-06
2025-08-17 01:27:02.102881,1.9889546820195392e-05
2025-08-17 01:27:02.103881,2.5509969418635592e-05
2025-08-17 01:27:02.104881,1.3466205928125419e-05
2025-08-17 01:27:02.105881,2.125450555467978e-05
2025-08-17 01:27:02.106881,-1.030994383199868e-07
2025-08-17 01:27:02.107881,-4.619056198862381e-05
2025-08-17 01:27:02.108881,-5.277448508422822e-05
2025-08-17 01:27:02.109881,3.715227285283618e-05
2025-08-17 01:27:02.110881,2.430559106869623e-05
2025-08-17 01:27:02.111881,1.266328945348505e-05
2025-08-17 01:27:02.112881,2.064777618215885e-06
2025-08-17 01:27:02.113881,1.1699787137331441e-05
2025-08-17 01:27:02.114881,2.947987013612874e-06
2025-08-17 01:27:02.115881,1.0896870662691072e-05
2025-08-17 01:27:02.116881,3.670613295980729e-06
2025-08-17 01:27:02.117881,1.0254536391585134e-05
2025-08-17 01:27:02.118881,2.8159596695331857e-05
2025-08-17 01:27:02.119881,2.2699758119415492e-05
2025-08-17 01:27:02.120881,1.7801959984353743e-05
2025-08-17 01:27:02.121881,4.028364855912514e-05
2025-08-17 01:27:02.122881,2.799901267280802e-05
2025-08-17 01:27:02.123881,9.451618097955361e-06
2025-08-17 01:27:02.124881,6.079364538891241e-06
2025-08-17 01:27:02.125881,3.0282790248747915e-06
2025-08-17 01:27:02.126881,-5.241771305009024e-06
2025-08-17 01:27:02.127881,-1.2789195352524985e-05
2025-08-17 01:27:02.128881,-1.961399357242044e-05
2025-08-17 01:27:02.129881,-1.7526408555568196e-05
2025-08-17 01:27:02.130881,-3.077454675803892e-05
2025-08-17 01:27:02.131881,-2.218333065684419e-05
2025-08-17 01:27:02.132881,-1.4395030120795127e-05
2025-08-17 01:27:02.133881,-1.0219859177595936e-05
2025-08-17 01:27:02.134881,-3.7162280932534486e-06
2025-08-17 01:27:02.135881,9.210743883159012e-06
2025-08-17 01:27:02.136881,2.823988688760437e-05
2025-08-17 01:27:02.137881,2.575084363343194e-05
2025-08-17 01:27:02.138881,1.8926046323031187e-05
2025-08-17 01:27:02.139881,4.312947567086667e-06
2025-08-17 01:27:02.140881,-5.1614792937471066e-06
2025-08-17 01:27:02.141881,-2.2807427058069152e-08
2025-08-17 01:27:02.142881,-4.679729045165004e-06
2025-08-17 01:27:02.143881,-8.854899533616845e-06
2025-08-17 01:27:02.144881,-2.3146831154008396e-05
2025-08-17 01:27:02.145881,-2.8767253752448596e-05
2025-08-17 01:27:02.146881,-2.36285814025905e-05
2025-08-17 01:27:02.146881,-3.350446786498651e-05
2025-08-17 01:27:02.147881,-1.937311935762409e-05
2025-08-17 01:27:02.148881,-1.3752696759183891e-05
2025-08-17 01:27:02.149881,-8.614024409325793e-06
2025-08-17 01:27:02.150881,5.517322279047221e-06
2025-08-17 01:27:02.151881,1.8765462300507352e-05
2025-08-17 01:27:02.152881,1.7079335520975292e-05
2025-08-17 01:27:02.153881,1.2422413419699296e-05
2025-08-17 01:27:02.154881,-8.935191544878762e-06
2025-08-17 01:27:02.155881,-5.50226541236043e-05
2025-08-17 01:27:02.156881,-0.00010119041689904407
2025-08-17 01:27:02.157881,-1.126365259551676e-05
2025-08-17 01:27:02.158881,2.7276386390440166e-05
2025-08-17 01:27:02.159881,1.563408295623958e-05
2025-08-17 01:27:02.160881,5.035572030465119e-06
2025-08-17 01:27:02.161881,1.4670582459075376e-05
2025-08-17 01:27:02.162881,-1.1665110832836945e-05
2025-08-17 01:27:02.163881,-3.7162280932534486e-06
2025-08-17 01:27:02.164881,3.510029273456894e-06
2025-08-17 01:27:02.165881,1.0093952369061299e-05
2025-08-17 01:27:02.166881,4.1523635445628315e-06
2025-08-17 01:27:02.167881,2.0531879272311926e-05
2025-08-17 01:27:02.168881,3.530556205078028e-05
2025-08-17 01:27:02.169881,3.980190012953244e-05
2025-08-17 01:27:02.170881,3.5707020288100466e-05
2025-08-17 01:27:02.171881,2.46267591137439e-05
2025-08-17 01:27:02.172881,1.4509998436551541e-05
2025-08-17 01:27:02.173881,5.356740075512789e-06
2025-08-17 01:27:02.174881,8.086659363470972e-06
2025-08-17 01:27:02.175881,-4.51914547738852e-06
2025-08-17 01:27:02.176881,-6.7673145167646e-06
2025-08-17 01:27:02.177881,-2.563587622717023e-05
2025-08-17 01:27:02.178881,-2.812491948134266e-05
2025-08-17 01:27:02.179881,-3.494972042972222e-05
2025-08-17 01:27:02.180881,-1.608115780982189e-05
2025-08-17 01:27:02.181881,-1.3592112736660056e-05
2025-08-17 01:27:02.182881,-6.7673145167646e-06
2025-08-17 01:27:02.183881,-5.045577040618809e-07
2025-08-17 01:27:02.184881,1.2743579645757563e-05
2025-08-17 01:27:02.185881,2.4787343136267737e-05
2025-08-17 01:27:02.186881,2.013042103499174e-05
2025-08-17 01:27:02.187881,1.3064747690805234e-05
2025-08-17 01:27:02.188881,1.1780079148593359e-05
2025-08-17 01:27:02.189881,3.5903212847188115e-06
2025-08-17 01:27:02.190881,2.546528776292689e-06
2025-08-17 01:27:02.191881,-1.0059276064566802e-05
2025-08-17 01:27:02.192881,-1.1745402844098862e-05
2025-08-17 01:27:02.193881,-1.6402324035880156e-05
2025-08-17 01:27:02.194881,-3.775993172894232e-05
2025-08-17 01:27:02.195881,-7.774522237014025e-05
2025-08-17 01:27:02.196881,-6.7673145167646e-06
2025-08-17 01:27:02.196881,-1.7446116544306278e-05
2025-08-17 01:27:02.197881,-7.811107025190722e-06
2025-08-17 01:27:02.198881,9.406930416844261e-07
2025-08-17 01:27:02.199881,8.889575838111341e-06
2025-08-17 01:27:02.200881,1.6115833204821683e-05
2025-08-17 01:27:02.201881,3.58676043106243e-05
2025-08-17 01:27:02.202881,2.992601366713643e-05
2025-08-17 01:27:02.203881,1.3546497939387336e-05
2025-08-17 01:27:02.204881,8.648701623314992e-06
2025-08-17 01:27:02.205881,4.1523635445628315e-06
2025-08-17 01:27:02.206881,5.74845842038485e-08
2025-08-17 01:27:02.207881,-1.1022777471225709e-05
2025-08-17 01:27:02.208881,-1.4395030120795127e-05
2025-08-17 01:27:02.209881,-1.7446116544306278e-05
2025-08-17 01:27:02.210881,-2.5716168238432147e-05
2025-08-17 01:27:02.211881,-8.051982149481773e-06
2025-08-17 01:27:02.212881,-4.257743421476334e-05
2025-08-17 01:27:02.213881,-0.0001168473027064465
2025-08-17 01:27:02.214881,4.2692401621025056e-05
2025-08-17 01:27:02.215881,1.9889546820195392e-05
2025-08-17 01:27:02.216881,4.060481660417281e-05
2025-08-17 01:27:02.217881,2.18165478145238e-05
2025-08-17 01:27:02.218881,-9.797874372452497e-05
2025-08-17 01:27:02.219881,-8.240214810939506e-05
2025-08-17 01:27:02.220881,4.502086449065246e-05
2025-08-17 01:27:02.221881,6.212299922481179e-05
2025-08-17 01:27:02.222881,4.654640724766068e-05
2025-08-17 01:27:02.223881,3.241506055928767e-05
2025-08-17 01:27:02.224881,1.956837877514772e-05
2025-08-17 01:27:02.225881,7.926075340947136e-06
2025-08-17 01:27:02.226881,-2.6724355848273262e-06
2025-08-17 01:27:02.227881,-1.2307445103942882e-05
2025-08-17 01:27:02.228881,-2.105924613715615e-05
2025-08-17 01:27:02.229881,2.867695911845658e-06
2025-08-17 01:27:02.230881,-4.358561909612035e-06
2025-08-17 01:27:02.231881,2.2253616407397203e-06
2025-08-17 01:27:02.232881,2.013042103499174e-05
2025-08-17 01:27:02.233881,2.5590259610908106e-05
2025-08-17 01:27:02.234881,3.048805592698045e-05
2025-08-17 01:27:02.235881,3.498439400573261e-05
2025-08-17 01:27:02.236881,2.2699758119415492e-05
2025-08-17 01:27:02.237881,1.90063365153037e-05
2025-08-17 01:27:02.238881,8.889575838111341e-06
2025-08-17 01:27:02.239881,5.8384903240948915e-06
2025-08-17 01:27:02.240881,3.108571036136709e-06
2025-08-17 01:27:02.241881,-1.4555614143318962e-05
2025-08-17 01:27:02.242881,-2.1380412363214418e-05
2025-08-17 01:27:02.243881,-2.7643169232760556e-05
2025-08-17 01:27:02.244881,-2.579645843070466e-05
2025-08-17 01:27:02.245881,-3.093513078056276e-05
2025-08-17 01:27:02.246881,-1.0541026313148905e-05
2025-08-17 01:27:02.246881,-1.937311935762409e-05
2025-08-17 01:27:02.247881,-1.1103068572992925e-05
2025-08-17 01:27:02.248881,1.1699787137331441e-05
2025-08-17 01:27:02.249881,1.4750874470337294e-05
2025-08-17 01:27:02.250881,2.8641345124924555e-05
2025-08-17 01:27:02.251881,2.1093921532155946e-05
2025-08-17 01:27:02.252881,2.3342090571532026e-05
2025-08-17 01:27:02.253881,-8.051982149481773e-06
2025-08-17 01:27:02.254881,-7.557734352303669e-05
2025-08-17 01:27:02.255881,-6.594233127543703e-05
2025-08-17 01:27:02.256881,4.8312824219465256e-05
2025-08-17 01:27:02.257881,1.5830273696337827e-06
2025-08-17 01:27:02.258881,1.57143749675015e-05
2025-08-17 01:27:02.259881,2.867695911845658e-06
2025-08-17 01:27:02.260881,-8.774608431849629e-06
2025-08-17 01:27:02.261881,1.8239024939248338e-06
2025-08-17 01:27:02.262881,1.1458912922535092e-05
2025-08-17 01:27:02.263881,2.7071118893218227e-06
2025-08-17 01:27:02.264881,1.0655994628905319e-05
2025-08-17 01:27:02.265881,1.788225199561566e-05
2025-08-17 01:27:02.266881,2.4466175091220066e-05
2025-08-17 01:27:02.267881,3.0407765734707937e-05
2025-08-17 01:27:02.268881,2.4947927158791572e-05
2025-08-17 01:27:02.269881,-9.657817827246618e-06
2025-08-17 01:27:02.270881,-1.4154154996504076e-05
2025-08-17 01:27:02.271881,-1.824903483793605e-05
2025-08-17 01:27:02.272881,2.983597084948997e-07
2025-08-17 01:27:02.273881,3.670613295980729e-06
2025-08-17 01:27:02.274881,-5.482646429300075e-06
2025-08-17 01:27:02.275881,-1.3752696759183891e-05
2025-08-17 01:27:02.276881,-2.13001203519525e-05
2025-08-17 01:27:02.277881,-1.905195131257642e-05
2025-08-17 01:27:02.278881,-1.6964366295724176e-05
2025-08-17 01:27:02.279881,-1.1343943697283976e-05
2025-08-17 01:27:02.280881,6.99817917393375e-07
2025-08-17 01:27:02.281881,2.2253616407397203e-06
2025-08-17 01:27:02.282881,1.5072040696395561e-05
2025-08-17 01:27:02.283881,2.3663258616579697e-05
2025-08-17 01:27:02.284881,1.5874958990025334e-05
2025-08-17 01:27:02.285881,2.8721638955175877e-05
2025-08-17 01:27:02.286881,9.692494131741114e-06
2025-08-17 01:27:02.287881,2.1450696294778027e-06
2025-08-17 01:27:02.288881,4.3932395783485845e-06
2025-08-17 01:27:02.289881,-1.4475322132057045e-05
2025-08-17 01:27:02.290881,-1.1986277968389913e-05
2025-08-17 01:27:02.291881,-1.4234447007765993e-05
2025-08-17 01:27:02.292881,-1.6322032024618238e-05
2025-08-17 01:27:02.293881,-1.8168742826674134e-05
2025-08-17 01:27:02.294881,-2.675996074685827e-05
2025-08-17 01:27:02.295881,-1.5840281776036136e-05
2025-08-17 01:27:02.296881,-2.001545362873003e-05
2025-08-17 01:27:02.296881,-5.241771305009024e-06
2025-08-17 01:27:02.297881,1.2618602340808138e-06
2025-08-17 01:27:02.298881,1.659758527239319e-05
2025-08-17 01:27:02.299881,1.868516847025603e-05
2025-08-17 01:27:02.300881,2.430559106869623e-05
2025-08-17 01:27:02.301881,1.57143749675015e-05
2025-08-17 01:27:02.302881,1.1057454685214907e-05
2025-08-17 01:27:02.303881,-1.0300151188857853e-05
2025-08-17 01:27:02.304881,-5.6387616496067494e-05
2025-08-17 01:27:02.305881,-0.00012897135457023978
2025-08-17 01:27:02.306881,-3.3950609577004798e-06
2025-08-17 01:27:02.307881,1.3707081961911172e-05
2025-08-17 01:27:02.308881,-1.8695172911975533e-06
2025-08-17 01:27:02.309881,1.2261829397175461e-05
2025-08-17 01:27:02.310881,-5.848497153237986e-07
2025-08-17 01:27:02.311881,1.1057454685214907e-05
2025-08-17 01:27:02.312881,2.1655963791999966e-05
2025-08-17 01:27:02.313881,1.2020955182379112e-05
2025-08-17 01:27:02.314881,2.0772757125087082e-05
2025-08-17 01:27:02.315881,2.8721638955175877e-05
2025-08-17 01:27:02.316881,3.5947894502896816e-05
2025-08-17 01:27:02.317881,2.936397140729241e-05
2025-08-17 01:27:02.318881,2.3422384401783347e-05
2025-08-17 01:27:02.319881,1.796254400687758e-05
2025-08-17 01:27:02.320881,1.3064747690805234e-05
2025-08-17 01:27:02.321881,-4.2426657387295563e-07
2025-08-17 01:27:02.322881,-4.51914547738852e-06
2025-08-17 01:27:02.323881,-8.212566172005609e-06
2025-08-17 01:27:02.324881,-2.507383396732621e-05
2025-08-17 01:27:02.325881,-4.0409559005638584e-05
2025-08-17 01:27:02.326881,-2.0978954125894234e-05
2025-08-17 01:27:02.327881,-2.3467999199056067e-05
2025-08-17 01:27:02.328881,-7.409648333123187e-06
2025-08-17 01:27:02.329881,-1.3672404747921973e-05
2025-08-17 01:27:02.330881,-4.2426657387295563e-07
2025-08-17 01:27:02.331881,1.8604878277983516e-05
2025-08-17 01:27:02.332881,2.6152301870752126e-05
2025-08-17 01:27:02.333881,2.8400470910128206e-05
2025-08-17 01:27:02.334881,1.796254400687758e-05
2025-08-17 01:27:02.335881,8.488117600791156e-06
2025-08-17 01:27:02.336881,-3.5556440707296133e-06
2025-08-17 01:27:02.337881,-5.08118773723254e-06
2025-08-17 01:27:02.338881,-9.256358680431731e-06
2025-08-17 01:27:02.339881,-1.0541026313148905e-05
2025-08-17 01:27:02.340881,-2.587675044196658e-05
2025-08-17 01:27:02.341881,-1.961399357242044e-05
2025-08-17 01:27:02.342881,-2.523441617086064e-05
2025-08-17 01:27:02.343881,-2.69205429503927e-05
2025-08-17 01:27:02.344881,-4.418327080202289e-05
2025-08-17 01:27:02.345881,-3.735846985364333e-05
2025-08-17 01:27:02.346881,-5.964396677882178e-06
2025-08-17 01:27:02.346881,1.1780079148593359e-05
2025-08-17 01:27:02.347881,2.5269091565860435e-05
2025-08-17 01:27:02.348881,3.755373109015636e-05
2025-08-17 01:27:02.349881,2.6473469915799797e-05
2025-08-17 01:27:02.350881,1.6356709238607436e-05
2025-08-17 01:27:02.351881,-5.08118773723254e-06
2025-08-17 01:27:02.352881,-2.3512684492743574e-06
2025-08-17 01:27:02.353881,-4.840312158194138e-06
2025-08-17 01:27:02.354881,-1.1665110832836945e-05
2025-08-17 01:27:02.355881,-4.305918628233485e-05
2025-08-17 01:27:02.356881,-0.00011058455129386857
2025-08-17 01:27:02.357881,-4.305918628233485e-05
2025-08-17 01:27:02.358881,1.844429425545968e-05
2025-08-17 01:27:02.359881,1.0495412425370887e-05
2025-08-17 01:27:02.360881,1.772166979208123e-05
2025-08-17 01:27:02.361881,2.430559106869623e-05
2025-08-17 01:27:02.362881,3.02471817121841e-05
2025-08-17 01:27:02.363881,2.4787343136267737e-05
2025-08-17 01:27:02.364881,3.956102591473609e-05
2025-08-17 01:27:02.365881,4.405736399348825e-05
2025-08-17 01:27:02.366881,3.1772724469192326e-05
2025-08-17 01:27:02.367881,2.8079302865080535e-05
2025-08-17 01:27:02.368881,1.1218036888749339e-05
2025-08-17 01:27:02.369881,2.064777618215885e-06
2025-08-17 01:27:02.370881,4.794697815668769e-06
2025-08-17 01:27:02.371881,2.305653652001638e-06
2025-08-17 01:27:02.372881,-4.51914547738852e-06
2025-08-17 01:27:02.373881,-1.9132243323838338e-05
2025-08-17 01:27:02.374881,-2.475266592227854e-05
2025-08-17 01:27:02.375881,-3.3343883842462674e-05
2025-08-17 01:27:02.376881,-1.608115780982189e-05
2025-08-17 01:27:02.376881,-4.5994370339030866e-06
2025-08-17 01:27:02.377881,-2.511851562303491e-06
2025-08-17 01:27:02.378881,-8.132274160743691e-06
2025-08-17 01:27:02.379881,1.0896870662691072e-05
2025-08-17 01:27:02.380881,2.350267459405586e-05
2025-08-17 01:27:02.381881,1.6677875464665703e-05
2025-08-17 01:27:02.382881,1.8765462300507352e-05
2025-08-17 01:27:02.383881,9.29103589442093e-06
2025-08-17 01:27:02.384881,4.1523635445628315e-06
2025-08-17 01:27:02.385881,-3.635936081991531e-06
2025-08-17 01:27:02.386881,-7.811107025190722e-06
2025-08-17 01:27:02.387881,-1.9533703380147927e-05
2025-08-17 01:27:02.388881,-1.1745402844098862e-05
2025-08-17 01:27:02.389881,-2.162128839700017e-05
2025-08-17 01:27:02.390881,-2.5475292204646394e-05
2025-08-17 01:27:02.391881,-2.892783777497243e-05
2025-08-17 01:27:02.392881,-1.5037364391901065e-05
2025-08-17 01:27:02.393881,-1.6884074284462258e-05
2025-08-17 01:27:02.394881,-1.1745402844098862e-05
2025-08-17 01:27:02.395881,2.385944753768854e-06
2025-08-17 01:27:02.395881,1.659758527239319e-05
2025-08-17 01:27:02.396881,2.6072011678479612e-05
2025-08-17 01:27:02.397881,1.7480793758295476e-05
2025-08-17 01:27:02.398881,1.2823871657019481e-05
2025-08-17 01:27:02.399881,8.648701623314992e-06
2025-08-17 01:27:02.400881,-4.2426657387295563e-07
2025-08-17 01:27:02.401881,-1.5483510651392862e-06
2025-08-17 01:27:02.402881,-1.1183360584254842e-05
2025-08-17 01:27:02.403881,-3.069425656576641e-05
2025-08-17 01:27:02.404881,-7.252625800902024e-05
2025-08-17 01:27:02.405881,-0.00011443855328252539
2025-08-17 01:27:02.406881,-3.2540967367822304e-05
2025-08-17 01:27:02.407881,2.4662367650307715e-06
2025-08-17 01:27:02.408881,1.3064747690805234e-05
2025-08-17 01:27:02.409881,2.2699758119415492e-05
2025-08-17 01:27:02.410881,3.1451556424144655e-05
2025-08-17 01:27:02.411881,2.350267459405586e-05
2025-08-17 01:27:02.412881,4.5261738705448806e-05
2025-08-17 01:27:02.413881,5.184566180105321e-05
2025-08-17 01:27:02.414881,4.590407115756534e-05
2025-08-17 01:27:02.415881,2.9524555429816246e-05
2025-08-17 01:27:02.416881,1.4750874470337294e-05
2025-08-17 01:27:02.417881,1.2618602340808138e-06
2025-08-17 01:27:02.418881,-1.9212535335100256e-05
2025-08-17 01:27:02.419881,6.721698809997179e-06
2025-08-17 01:27:02.420881,-3.3950609577004798e-06
2025-08-17 01:27:02.421881,-6.446147381211631e-06
2025-08-17 01:27:02.422881,-1.4716197256348096e-05
2025-08-17 01:27:02.423881,-2.226362266810611e-05
2025-08-17 01:27:02.423881,-1.543882353871595e-05
2025-08-17 01:27:02.424881,-9.176066669169813e-06
2025-08-17 01:27:02.425881,-7.32935677660862e-06
2025-08-17 01:27:02.426881,4.7144058044068515e-06
2025-08-17 01:27:02.427881,9.371327905682847e-06
2025-08-17 01:27:02.428881,2.7918722480535507e-05
2025-08-17 01:27:02.429881,5.115864041727036e-06
2025-08-17 01:27:02.430881,2.0451589080039412e-05
2025-08-17 01:27:02.431881,1.2181537385913543e-05
2025-08-17 01:27:02.432881,-4.2426657387295563e-07
2025-08-17 01:27:02.433881,1.1057454685214907e-05
2025-08-17 01:27:02.434881,-3.5556440707296133e-06
2025-08-17 01:27:02.435881,-1.3030070476816036e-05
2025-08-17 01:27:02.436881,-1.1343943697283976e-05
2025-08-17 01:27:02.437881,-2.5475292204646394e-05
2025-08-17 01:27:02.438881,-2.36285814025905e-05
2025-08-17 01:27:02.439881,-2.1942454623058438e-05
2025-08-17 01:27:02.440881,-1.4154154996504076e-05
2025-08-17 01:27:02.441881,-1.551911554997787e-05
2025-08-17 01:27:02.442881,-6.446147381211631e-06
2025-08-17 01:27:02.443881,-5.322062861523591e-06
2025-08-17 01:27:02.444881,2.064777618215885e-06
2025-08-17 01:27:02.444881,1.7561085769557394e-05
2025-08-17 01:27:02.445881,1.4670582459075376e-05
2025-08-17 01:27:02.446881,2.7918722480535507e-05
2025-08-17 01:27:02.447881,7.042866855044849e-06
2025-08-17 01:27:02.448881,4.312947567086667e-06
2025-08-17 01:27:02.449881,-3.2344778446713462e-06
2025-08-17 01:27:02.450881,8.247243385994807e-06
2025-08-17 01:27:02.451881,-2.3146831154008396e-05
2025-08-17 01:27:02.452881,-9.067219798453152e-05
2025-08-17 01:27:02.453881,1.5553790944977663e-05
2025-08-17 01:27:02.454881,1.4224442566046491e-06
2025-08-17 01:27:02.455881,1.4269124221755192e-05
2025-08-17 01:27:02.456881,-9.099335875362158e-05
2025-08-17 01:27:02.457881,-0.00013338739518076181
2025-08-17 01:27:02.458881,-4.338035068940371e-05
2025-08-17 01:27:02.459881,6.188212864799425e-05
2025-08-17 01:27:02.460881,7.601347169838846e-05
2025-08-17 01:27:02.461881,8.886015712050721e-05
2025-08-17 01:27:02.462881,5.3852952987654135e-05
2025-08-17 01:27:02.463881,6.4451465732418e-05
2025-08-17 01:27:02.464881,3.554643626557663e-05
2025-08-17 01:27:02.465881,2.6794637960847467e-05
2025-08-17 01:27:02.466881,1.8845752492779866e-05
2025-08-17 01:27:02.467881,1.1619496945058927e-05
2025-08-17 01:27:02.468881,5.035572030465119e-06
2025-08-17 01:27:02.469881,-2.4913249944802374e-05
2025-08-17 01:27:02.470881,-1.945341136888601e-05
2025-08-17 01:27:02.471881,-3.4227094147354364e-05
2025-08-17 01:27:02.472881,-2.073807809210848e-05
2025-08-17 01:27:02.473881,-2.6368255134912033e-07
2025-08-17 01:27:02.474881,3.429737262194976e-06
2025-08-17 01:27:02.475881,6.801990821259096e-06
2025-08-17 01:27:02.476881,3.750905307242647e-06
2025-08-17 01:27:02.477881,2.318150654900819e-05
2025-08-17 01:27:02.478881,3.072893377975561e-05
2025-08-17 01:27:02.479881,2.3904132831376046e-05
2025-08-17 01:27:02.480881,1.7641377780819312e-05
2025-08-17 01:27:02.481881,5.392348043642414e-07
2025-08-17 01:27:02.482881,2.7874039005837403e-06
2025-08-17 01:27:02.483881,-3.4753529689623974e-06
2025-08-17 01:27:02.484881,-9.095775567402598e-06
2025-08-17 01:27:02.485881,-1.768699257809203e-05
2025-08-17 01:27:02.486881,-3.808109613601118e-05
2025-08-17 01:27:02.487881,-2.981104626087472e-05
2025-08-17 01:27:02.488881,-3.230008951504715e-05
2025-08-17 01:27:02.489881,-1.1584818821575027e-05
2025-08-17 01:27:02.490881,-1.4314739019027911e-05
2025-08-17 01:27:02.491881,-6.7673145167646e-06
2025-08-17 01:27:02.492881,-2.282566492795013e-05
2025-08-17 01:27:02.493881,8.568409612053074e-06
