EMG1,EMG2
0.0,0.0
0.0,0.0
0.0,0.0
0.0,0.0
0.0,0.0
0.0,0.0
0.0,0.0
0.0,0.0
0.0,0.0
0.0,0.0
0.0,0.0
0.0,0.0
0.0,0.0
0.0,0.0
0.0,0.0
0.0,0.0
0.0,0.0
0.0,0.0
0.0,0.0
0.0,0.0
0.0,0.0
0.0,0.0
0.0,0.0
0.0,0.0
0.0,0.0
0.0,0.0
0.0,0.0
0.0,0.0
0.0,0.0
0.0,0.0
0.0,0.0
0.0,0.0
0.0,0.0
0.0,0.0
0.0,0.0
0.0,0.0
0.0,0.0
0.0,0.0
0.0,0.0
0.0,0.0
0.0,0.0
0.0,0.0
0.0,0.0
0.0,0.0
0.0,0.0
0.0,0.0
0.0,0.0
0.0,0.0
0.0,0.0
0.0,0.0
0.0,0.0
0.0,0.0
0.0,0.0
0.0,0.0
0.0,0.0
0.0,0.0
0.0,0.0
0.0,0.0
0.0,0.0
0.0,0.0
0.0,0.0
0.0,0.0
0.0,0.0
0.0,0.0
0.0,0.0
0.0,0.0
0.0,0.0
0.0,0.0
0.0,0.0
0.0,0.0
0.0,0.0
0.0,0.0
0.0,0.0
0.0,0.0
0.0,0.0
0.0,0.0
0.0,0.0
0.0,0.0
0.0,0.0
0.0,0.0
0.0,0.0
0.0,0.0
0.0,0.0
0.0,0.0
0.0,0.0
0.0,0.0
0.0,0.0
0.0,0.0
0.0,0.0
0.0,0.0
0.0,0.0
0.0,0.0
0.0,0.0
0.0,0.0
0.0,0.0
0.0,0.0
0.0,0.0
0.0,0.0
0.0,0.0
0.0,0.0
0.0,0.0
0.0,0.0
0.0,0.0
0.0,0.0
0.0,0.0
0.0,0.0
0.0,0.0
0.0,0.0
0.0,0.0
0.0,0.0
0.0,0.0
0.0,0.0
0.0,0.0
0.0,0.0
0.0,0.0
0.0,0.0
0.0,0.0
0.0,0.0
0.0,0.0
0.0,0.0
0.0,0.0
0.0,0.0
0.0,0.0
0.0,0.0
0.0,0.0
0.0,0.0
0.0,0.0
0.0,0.0
0.0,0.0
0.0,0.0
0.0,0.0
0.0,0.0
0.0,0.0
0.0,0.0
0.0,0.0
0.0,0.0
0.0,0.0
0.0,0.0
0.0,0.0
0.0,0.0
0.0,0.0
0.0,0.0
0.0,0.0
0.0,0.0
0.0,0.0
0.0,0.0
0.0,0.0
0.0,0.0
0.0,0.0
0.0,0.0
0.0,0.0
0.0,0.0
0.0,0.0
0.0,0.0
0.0,0.0
0.0,0.0
0.0,0.0
0.0,0.0
0.0,0.0
0.0,0.0
0.0,0.0
0.0,0.0
0.0,0.0
0.0,0.0
0.0,0.0
0.0,0.0
0.0,0.0
0.0,0.0
0.0,0.0
0.0,0.0
0.0,0.0
0.0,0.0
0.0,0.0
0.0,0.0
0.0,0.0
0.0,0.0
0.0,0.0
0.0,0.0
0.0,0.0
0.0,0.0
0.0,0.0
0.0,0.0
0.0,0.0
0.0,0.0
0.0,0.0
0.0,0.0
0.0,0.0
0.0,0.0
0.0,0.0
0.0,0.0
0.0,0.0
0.0,0.0
0.0,0.0
0.0,0.0
0.0,0.0
0.0,0.0
0.0,0.0
0.0,0.0
0.0,0.0
0.0,0.0
0.0,0.0
0.0,0.0
0.0,0.0
0.0,0.0
0.0,0.0
0.0,0.0
0.0,0.0
0.0,0.0
0.0,0.0
0.0,0.0
0.0,0.0
0.0,0.0
0.0,0.0
0.0,0.0
0.0,0.0
0.0,0.0
0.0,0.0
0.0,0.0
0.0,0.0
0.0,0.0
0.0,0.0
0.0,0.0
0.0,0.0
0.0,0.0
0.0,0.0
0.0,0.0
0.0,0.0
0.0,0.0
0.0,0.0
0.0,0.0
0.0,0.0
0.0,0.0
0.0,0.0
0.0,0.0
0.0,0.0
0.0,0.0
0.0,0.0
0.0,0.0
0.0,0.0
0.0,0.0
0.0,0.0
0.0,0.0
0.0,0.0
0.0,0.0
0.0,0.0
0.0,0.0
0.0,0.0
0.0,0.0
0.0,0.0
0.0,0.0
0.0,0.0
4.416046067490242e-06,-7.22625600246829e-07
5.2457276069617365e-06,3.7469490621333534e-07
7.908736733952537e-06,-2.007277544180397e-08
8.639392035547644e-06,-8.510924089932814e-07
9.139876055996865e-06,3.305343625470414e-06
7.077143891365267e-06,8.37328514080582e-07
1.2746313586831093e-06,9.434279490960762e-07
-4.71937073598383e-06,3.0510861961374758e-06
-5.042321845394326e-06,1.2284633612580365e-06
-1.553280344523955e-05,4.109477231395431e-06
-1.578401861479506e-05,6.563850092788925e-06
-1.8868560800910927e-05,4.261639219294011e-07
-2.6691270250012167e-05,-5.34513674210757e-06
-2.131478140654508e-05,-2.740625177466427e-06
-7.863572136557195e-06,8.179717951861676e-07
-5.8140662986261304e-06,1.6530584900920076e-07
4.821966740564676e-06,-8.336960490851197e-06
3.2750590435171034e-06,-4.247011474944884e-06
1.1730626283679157e-05,3.7456095469678985e-06
1.6754212992964312e-05,5.84982274176582e-07
1.4996310710557736e-05,5.156919087312417e-06
9.736249012348708e-06,7.086612754392263e-07
5.09852679897449e-06,1.448596208319941e-06
-2.0426211904123193e-06,4.859256023337366e-06
-1.0376155614721938e-06,4.054732471558964e-06
-5.251674338069279e-06,6.765323178115068e-06
-5.83835617362638e-06,5.052644610259449e-06
-1.338933998340508e-05,8.211907697841525e-06
-9.916030649037566e-06,7.550100690423278e-06
-1.0528578059165739e-05,5.364007847674657e-06
-9.34395120566478e-06,6.2075564528640825e-06
-4.963482069797465e-07,4.384417024994036e-06
-1.5727728168712929e-06,1.0603240525597357e-06
3.620012421379215e-06,-1.075909040082479e-06
8.203141078411136e-06,9.055127065948909e-07
1.3996806046634447e-05,-3.025045316462638e-06
1.2846679965150543e-05,-3.655381135558855e-07
1.0404986824141815e-05,-1.764358785294462e-06
1.4607076991524082e-05,-2.9728012123086955e-06
7.827467925380915e-06,2.2697117856296245e-06
3.330197614559438e-06,2.9210912089183694e-06
-2.236963837276562e-06,3.480555051282863e-06
-7.129540335881757e-06,7.481732154701604e-06
-1.1446033568063285e-05,5.823828814754961e-06
-1.528161192254629e-05,5.225946097198175e-06
-1.4484971870842855e-05,7.236507826746674e-06
-1.6620389942545444e-05,4.334082859713817e-06
,3.931019364245003e-06
,-4.7532657276860846e-07
,-2.1977891719870968e-06
,-4.75419756185147e-06
,-3.246512960686232e-06
,-1.9255148799857125e-06
,-3.0729841000720626e-06
,-3.3335415992041817e-06
-1.2348542441031896e-05,
-9.504936315352097e-06,
-2.942455466836691e-06,
1.4452525647357106e-06,
6.932359610800631e-06,
1.035020159179112e-05,
9.531360774417408e-06,
1.464464276068611e-05,
1.154792607849231e-05,-1.6973958736343775e-06
9.218323612003587e-06,-1.3525011581805302e-06
7.167740022850921e-06,2.5380354600201827e-06
-1.7945206991498708e-06,9.956178246284253e-07
-1.0689333066693507e-05,5.4019228628021665e-06
-1.3913782822783105e-05,3.5768680390901864e-06
-1.677460386417806e-05,3.045988250960363e-06
-1.366716060147155e-05,3.472618573141517e-06
-1.0848032616195269e-05,-3.1424956432601903e-06
-8.311412784678396e-06,-2.1459795789269265e-06
-4.628160695574479e-06,-1.2439232932592859e-06
2.55988993558276e-06,1.1476986401248723e-06
-3.2582190101493325e-07,4.1891280488925986e-07
2.2906078811502084e-06,-1.486544647377741e-06
1.4132479009276722e-05,-9.11481151888438e-07
8.868892109603621e-06,-4.237627990733017e-07
1.3340527402760927e-05,-1.84341081421735e-06
1.181373681902187e-05,3.2008168204811227e-07
2.7042251531383954e-06,-1.6647155689497595e-06
1.5593490161336376e-06,1.0036458064632825e-07
-7.970781553012785e-06,3.110522811766714e-06
-9.13679014047375e-06,8.301961315737572e-06
-1.4808239029662218e-05,4.629479008144699e-06
-1.3592390132544097e-05,5.205915840633679e-06
-1.0569766345724929e-05,3.3970338790823007e-06
-9.568428140482865e-06,1.8486684894014616e-06
-3.900438969139941e-06,1.3504493381333305e-06
-1.7119361928052967e-06,3.476441406746744e-06
2.830990979418857e-06,-2.5948402253561653e-06
1.0495811693544965e-05,-1.6917288121476304e-06
1.1406964404159226e-05,-7.2281036409549415e-06
1.6040099581005052e-05,-6.431551810237579e-06
1.4986589121690486e-05,-1.8340801943850238e-06
1.8790051399264485e-05,-1.257904614249128e-06
1.0642625056789257e-05,2.6469720637578575e-07
7.4296031016274355e-06,2.7238095299253473e-06
6.777293037885102e-07,1.4236668448575074e-06
-5.4461738727695774e-06,2.60008528130129e-06
-1.2539037015812937e-05,6.545044016093016e-06
-1.717574559734203e-05,2.8219189971423475e-06
-1.0879947694775183e-05,1.3624757002617116e-06
-1.1563652151380666e-05,-7.971833042574872e-07
-3.498775413390831e-06,1.9926940240111435e-06
-6.563851911778329e-06,-4.913862881039677e-07
-5.544901796383783e-06,-4.858844476984814e-06
4.129512944928138e-06,-1.8695396875045844e-06
7.906007340352517e-06,-6.701633992634015e-06
1.124933532992145e-05,-6.001037490932504e-06
1.0108346941706259e-05,-4.194288976577809e-06
1.2876219443569425e-05,-3.677514541777782e-06
1.3630837202072144e-05,-4.1203934415534604e-06
4.9929558372241445e-06,-4.718628133559832e-06
2.5604956590541406e-06,-1.6522427586096455e-06
3.890489210789383e-07,4.409475877764635e-06
-9.401369425177108e-06,6.995507646934129e-06
-1.9105134924757294e-05,7.728795935690869e-06
-1.7662765458226204e-05,6.944169399503153e-06
-1.4085568182053976e-05,-2.7961334581050323e-07
-1.9216260625398718e-05,6.779411592106044e-07
-1.618501846678555e-05,-1.95468987840286e-06
-8.16574083728483e-06,4.501813180013414e-07
-2.842193225660594e-06,-4.569145858113188e-06
7.770755473757163e-06,7.421117498296326e-09
9.059584044734947e-06,-5.327357939677313e-06
1.5434592569363303e-05,-1.0299905625288375e-05
1.6422951375716366e-05,-1.0852549166884273e-05
1.5254124264174607e-05,-4.233921572449617e-06
1.2263914868526626e-05,1.8065600215777522e-07
9.537373443890829e-06,4.161681317782495e-06
5.478954335558228e-06,4.845542207476683e-06
-1.0962687611026922e-06,2.8955598736501997e-06
-1.0727104381658137e-05,8.210457963286899e-06
-1.7097165255108848e-05,7.4297877290518954e-06
-1.353966126771411e-05,6.735242095601279e-06
-1.240048004547134e-05,8.436762072960846e-06
-7.525528417318128e-06,2.4762698558333796e-06
-3.0861026516504353e-06,1.6607705219939817e-06
-2.266146339024999e-06,3.800075091930921e-06
-9.754095486869119e-08,-7.708026714681182e-07
5.8010768952954095e-06,-2.5185647700709524e-06
9.744018825585954e-06,-5.130468707648106e-06
1.3260355444799643e-05,-6.29535463758657e-07
1.5078096112119965e-05,-6.70075053221808e-08
1.3216594197729137e-05,-1.5811755247341353e-06
1.2644525668292772e-05,-1.0916273822658695e-06
7.134089628380025e-06,1.0686704854379059e-06
5.463185743792565e-07,2.2571512090507895e-06
-5.597006293101003e-06,1.2049318911522278e-06
-1.592434819031041e-05,6.220116574695567e-06
-1.7170887076645158e-05,4.024484042020049e-06
-1.577815055497922e-05,4.635071491065901e-06
-1.2242324373801239e-05,4.5679308868784574e-07
-9.049798791238572e-06,3.0855719614919508e-06
-4.204077868052991e-06,1.6293849967041751e-06
2.105641243588252e-07,-3.2467667097080266e-06
-5.884563165636791e-07,-3.863514393742662e-06
3.0049041015445255e-06,-4.396631084091496e-06
1.0164725608774461e-05,-4.846704086958198e-06
1.1056431503675412e-05,-5.294077709550038e-06
1.7128390027210116e-05,-7.414122137561208e-06
9.839061931415927e-06,-2.101396376019693e-06
8.819387403491419e-06,1.5021651051938534e-06
3.3384180824214127e-06,2.7693051833921345e-06
-2.8262711566640064e-06,3.390317033336032e-06
-6.7983692133566365e-06,3.927810666937148e-06
-1.6172345567611046e-05,7.574185929115629e-06
-1.734991565172095e-05,1.0639870424711262e-06
-1.3812630641041324e-05,5.446618615678744e-06
-1.0616518011374865e-05,-1.7275070263167436e-07
-7.67947221902432e-06,5.4656339898429e-07
-4.999726115784142e-06,-2.728959316300461e-06
6.170015467432677e-07,-9.257448255084455e-06
8.59501597005874e-06,-4.81275537822512e-06
9.582109669281635e-06,-5.582639460044447e-06
1.431540567864431e-05,-4.83159237774089e-06
1.5110251297301147e-05,-1.5306798104575137e-06
1.2628079275600612e-05,-2.080625336020603e-06
8.963141226558946e-06,1.6035260159696918e-06
5.63877210879582e-06,1.5737013825400936e-07
2.57752589050142e-07,4.148253083258169e-06
-6.290430064836983e-06,4.603844899975229e-06
-1.9428800442256033e-05,6.0151132856844924e-06
-2.1156653019716032e-05,2.9474676921381615e-06
-1.9362358216312714e-05,2.5318652205896797e-06
-1.1510112926771399e-05,4.274535513104638e-06
-7.2946399995998945e-06,-7.795377996444586e-07
-5.977130967949051e-06,1.3807527921017027e-06
2.2006022390996804e-06,7.344053187807731e-07
7.459318112523761e-06,-3.4221666282974184e-06
1.0294177627656609e-05,-2.9246077701827744e-06
1.2874585991085041e-05,-2.429793767078081e-06
1.2007456462015398e-05,-5.451726337923901e-06
1.410033382853726e-05,-9.503331739324494e-07
1.3387168110057246e-05,-3.862470521198702e-07
1.1559907761693466e-05,-8.634531809548207e-07
4.470825842872728e-06,-1.338197648692585e-06
1.5721350337116746e-06,2.662522547325352e-06
-4.586565410136245e-06,3.128066055069212e-06
-1.334984517598059e-05,4.549864115688251e-06
-1.6716663594706915e-05,6.683467290713452e-06
-1.9747290934901685e-05,3.8535949897777755e-06
-1.2937111932842527e-05,1.3576595847553108e-06
-8.478245945298113e-06,3.02849116451398e-06
-4.441340934135951e-06,2.9707825888181105e-07
-8.240915576607222e-07,-2.9799834919685964e-06
3.733960738827591e-06,-3.3647024793026503e-06
7.870170520618558e-06,-4.5465708353731316e-06
1.1506906048452947e-05,-4.843876467930386e-06
1.6883981516002677e-05,-1.7840446844274993e-06
1.608290222065989e-05,-1.3758743762082304e-06
1.2729149602819234e-05,-2.407977717666654e-06
8.512852218700573e-06,6.400175038834277e-07
2.5589608867448987e-06,1.0364925628891797e-06
-4.245523996360134e-06,4.721911182059557e-07
-9.819187653192785e-06,5.903915734961629e-06
-1.1930522305192426e-05,5.076936758996453e-06
-1.5151016668824013e-05,2.895402076319442e-06
-1.8037129848380573e-05,3.5212051443522796e-06
-1.5315932614612393e-05,-1.8496986058380571e-06
-7.812463081791066e-06,3.1670555245000287e-07
-2.501626113371458e-06,-3.241277966026246e-07
-9.20371985557722e-06,-2.0809561647183727e-06
-4.76581180919311e-06,-2.551004627093789e-06
7.244869266287424e-06,-2.059848384305951e-06
1.232750673807459e-05,-8.684588465257548e-06
1.0753306014521513e-05,-1.1522950444486924e-05
1.206392244057497e-05,-5.316538135957671e-06
1.328899907093728e-05,-4.49347044195747e-06
1.2110848729207646e-05,-2.3152572339313338e-06
4.703104877989972e-06,3.61028605766478e-06
-4.030860054626828e-06,7.591283974761609e-06
-7.4505833254079334e-06,5.399619112722576e-06
-1.0535752153373323e-05,4.7365115278807934e-06
-1.1449255907791667e-05,7.673796062590554e-06
-1.0520306204853114e-05,5.002419129596092e-06
-6.477677288785344e-06,5.460531156131765e-06
-4.291302957426524e-06,1.4397375025509973e-06
2.8410704544512555e-07,-3.443280547799077e-06
4.440302745933877e-06,-2.789027803373756e-06
1.0337901585444342e-05,-3.336870577186346e-06
1.1093810826423578e-05,-3.8025084450055147e-06
1.3205965842644218e-05,-5.225710538070416e-06
1.3790358025289606e-05,-3.9245528569153976e-06
1.4292598280007951e-05,-2.708842885112972e-06
1.159465955424821e-05,5.806995204693521e-07
8.108469046419486e-06,2.7372186650609365e-06
1.4383106190507533e-06,1.526534219919995e-06
-7.283516424649861e-06,4.798747795575764e-06
-1.0692241630749777e-05,5.178981609788025e-06
-1.800559039111249e-05,5.557756139751291e-06
-1.889229315565899e-05,8.172207799361786e-07
-1.617716952750925e-05,2.733157543843845e-06
-8.914966201700736e-06,-2.3668280846322887e-07
-6.000364919600543e-06,-1.7551769815327134e-06
-1.5843187384234625e-06,-1.273426732950611e-06
8.244334139817511e-07,-3.4413037610647734e-06
4.4375624383974355e-06,-5.448597676149802e-06
1.4313448446046095e-05,-2.156635673600249e-06
1.5678406271035783e-05,-3.4413037610647734e-06
1.696307481324766e-05,-3.842762453132309e-06
1.3510530152416322e-05,-1.3537182894651778e-06
8.211274689529091e-06,9.74742306425469e-07
3.3937692478502868e-06,2.419993961666478e-06
4.2769784158736e-06,1.6170765775314067e-06
,4.909038125333609e-06
,8.120708116621245e-06
,4.106120741198538e-06
,1.4564925550075714e-06
,1.1241300335029791e-08
,-1.273426732950611e-06
,-2.477802809153218e-06
,-7.113845299500099e-07
,-5.76976435695542e-06
,-9.382893040310591e-06
,-3.4413037610647734e-06
,-2.6383863769297022e-06
,-4.705089509116078e-07
,-2.397511252638651e-06
,1.7776596905605402e-06
,2.521168767088966e-07
,1.6973676792986225e-06
,6.595164904865669e-06
,5.9528306337597314e-06
-8.409117072005756e-06,5.390788373915711e-06
-1.8847043975256383e-05,3.865245616907487e-06
-1.4671873941551894e-05,3.3834944588306826e-06
-1.3387205399340019e-05,-1.5143018572416622e-06
-7.525908131356118e-06,4.126999897380301e-07
-4.3945301513304e-06,-1.4934227010598988e-07
-7.285033007065067e-06,-1.6748854250181466e-06
2.430268750686082e-06,-1.1931347216886934e-06
3.7149363834032556e-06,-5.207722551858751e-06
1.190469538414618e-05,-3.6821788853558246e-06
1.0860902875720058e-05,-1.1931347216886934e-06
1.3751406186202075e-05,-7.916760864645767e-07
1.4634614672104362e-05,-1.9960521058237646e-06
7.408356850646669e-06,2.0185348148515914e-06
-3.270445404268685e-06,4.668163001042558e-06
-4.6354052756214514e-06,2.1791188373754267e-06
-7.814013542883913e-07,4.346995865489589e-06
-8.971159331849776e-06,6.354289780574618e-06
-1.4270414794737007e-05,2.33970195040456e-06
-1.5233915291901212e-05,2.8214521989866626e-06
-1.2584288015204947e-05,-6.310925186880922e-07
-5.358031103241956e-06,-1.915760549309198e-06
-6.3215320551535115e-06,1.7776596905605402e-06
-3.6719040963362204e-06,-5.6894728004408535e-06
5.160187811270589e-06,-4.645680292014731e-06
8.612733836343978e-06,-1.7551769815327134e-06
1.1744111361622345e-05,-8.719680977264943e-07
1.4634614672104362e-05,-6.905025884407223e-08
1.7284241039305925e-05,-7.916760864645767e-07
1.6481324564665556e-05,-1.4934227010598988e-07
1.1422945135564078e-05,5.230205260886578e-06
4.196687314106384e-06,4.507578978518723e-06
1.3061841173112043e-06,
-4.876280399912503e-06,
-8.89086823008256e-06,
-1.3949247659184039e-05,
-1.724120920698624e-05,
-1.1861662642331794e-05,
-9.693785614217632e-06,
-5.117155524203554e-06,
-2.1463608845806448e-06,
5.96310519540566e-06,
7.0871897150937e-06,
1.2386445632728282e-05,
1.3349946129892487e-05,
1.24667376439902e-05,
1.0057984582090285e-05,
4.9996046982414555e-06,
4.357270427135518e-06,
-2.2266528958425624e-06,
-8.409117072005756e-06,
-1.5795958461239934e-05,8.120708116621245e-06
-1.820471152313985e-05,4.828746114071691e-06
-1.6036834495025687e-05,6.595164904865669e-06
-1.1460203495516907e-05,5.069621238362743e-06
-6.08065693086246e-06,5.732840122618654e-07
-3.912779448000947e-06,-2.397511252638651e-06
-7.204740995803149e-06,-1.915760549309198e-06
1.7879343658933067e-06,-2.397511252638651e-06
8.291566700791009e-06,-9.061725904757623e-06
1.415286442352226e-05,-1.195222921523964e-05
1.5196656931948382e-05,-4.0033460209087934e-06
1.2306153621466365e-05,-2.959553512482671e-06
1.3189363926358055e-05,-6.905025884407223e-08
7.5689399636758026e-06,8.141591365529166e-07
-3.350737188156927e-06,1.6170765775314067e-06
-8.007658834685571e-06,3.784953605645569e-06
,5.71195550946868e-06
,3.9455367186747026e-06
,4.427287876751507e-06
,1.9382437130843755e-06
,6.535751140290813e-07
,1.0550343176873866e-06
,-1.4340103007270955e-06
,-1.1128431651741266e-06
,-8.719680977264943e-07
,-2.2369276848621666e-06
,-5.930347924731905e-06
,-2.2369276848621666e-06
,2.521168767088966e-07
,-1.4934227010598988e-07
,1.8579517018224578e-06
,9.15328541850613e-08
,-2.2963382662055665e-07
,4.266703854227671e-06
,7.558665402029874e-06
,8.120708116621245e-06
,3.222911345801549e-06
,-1.3537182894651778e-06
,-1.915760549309198e-06
,-2.397511252638651e-06
,-1.915760549309198e-06
,-5.930347924731905e-06
,-6.412098628061358e-06
,-6.89384887664346e-06
,-6.492390184575925e-06
,-5.288014108373318e-06
,1.7182486544697895e-07
,9.74742306425469e-07
,1.6973676792986225e-06
,4.989330136595527e-06
,2.0185348148515914e-06
-1.2182829777884763e-05,
-1.6036834495025687e-05,
-1.2584288015204947e-05,
-1.3628081433125772e-05,
-8.810576218820643e-06,
-4.3945301513304e-06,
2.8317269880062668e-06,
5.722230071114609e-06,
1.0138276593352202e-05,
1.2547029655252118e-05,
1.1824403372884262e-05,
1.24667376439902e-05,
1.302877990383422e-05,
1.5678406271035783e-05,
1.2225861610204447e-05,
5.5616469580854755e-06,
-5.117155524203554e-06,
-1.7963835489354096e-05,
-1.9649962268886156e-05,
-1.812441951187793e-05,
-1.3949247659184039e-05,
-7.4456165748415515e-06,
-6.3215320551535115e-06,
-1.0222764785794425e-06,
5.722230071114609e-06,
1.0138276593352202e-05,
1.2547029655252118e-05,
1.6160156519617885e-05,
1.2868195881310385e-05,
1.1101777090516407e-05,
1.0620026841934305e-05,
9.174776096187998e-06,
2.5105607619479997e-06,
-1.0095243851537816e-05,
-1.5233915291901212e-05,
-1.419012278347509e-05,5.551372396439547e-06
-1.5715666449978016e-05,2.90174421024858e-06
-1.4350706805998925e-05,1.4564925550075714e-06
-7.847074812161736e-06,-1.594593413756229e-06
3.4268319382135815e-07,-3.9021739439704106e-07
3.4740612591122044e-06,-2.8792615012207534e-06
8.291566700791009e-06,-1.915760549309198e-06
1.0941194886981975e-05,-3.923054464394227e-06
1.0138276593352202e-05,-6.412098628061358e-06
7.97039956523804e-06,-1.1470478966657538e-05
8.612733836343978e-06,-1.0747852684289683e-05
9.174776096187998e-06,-4.806263405043865e-06
4.2769784158736e-06,-4.0033460209087934e-06
9.850169817582355e-07,1.0550343176873866e-06
-3.1901536203804426e-06,2.982036221510498e-06
-1.1299620382487774e-05,8.361582331417594e-06
-1.475216504331911e-05,1.3419962670013774e-05
-1.1620787518040743e-05,7.478374300262658e-06
-1.0657286111381836e-05,8.281290320155676e-06
-8.007658834685571e-06,7.558665402029874e-06
-5.598906227533007e-06,5.631663498206763e-06
-5.405262299973401e-07,3.865245616907487e-06
-5.117155524203554e-06,2.33970195040456e-06
2.6711438749771332e-06,8.944502383201325e-07
1.2306153621466365e-05,-2.156635673600249e-06
1.6160156519617885e-05,-2.5580943656677846e-06
2.202145515184384e-05,-7.916760864645767e-07
1.4634614672104362e-05,-1.7551769815327134e-06
1.1744111361622345e-05,-2.5580943656677846e-06
7.328064839384751e-06,4.929920009999478e-07
3.313478146083071e-06,4.1864127524604555e-06
-4.715696832136018e-06,4.668163001042558e-06
-7.847074812161736e-06,7.719248060311656e-06
-1.4591581930289976e-05,6.5148728936037514e-06
-1.1941954653593712e-05,4.748454102809774e-06
-7.927366823423654e-06,3.0623282327724155e-06
-2.868986712201149e-06,1.0550343176873866e-06
-3.5113207559334114e-06,2.521168767088966e-07
6.638503009526175e-07,-3.4413037610647734e-06
4.357270427135518e-06,-6.090931492508389e-06
1.1824403372884262e-05,-2.6383863769297022e-06
1.7123658835771494e-05,-2.2369276848621666e-06
1.6160156519617885e-05,-6.733265308866976e-06
1.880978379631415e-05,-4.966846972820349e-06
8.371858712052926e-06,-3.4413037610647734e-06
7.0068977038317826e-06,-9.522596542410611e-07
5.032667331761331e-07,-5.508009621735255e-07
-2.9492784960893914e-06,3.9455367186747026e-06
-6.08065693086246e-06,5.71195550946868e-06
-1.675945895840414e-05,4.1864127524604555e-06
-1.812441951187793e-05,4.668163001042558e-06
-2.2219299353309907e-05,5.230205260886578e-06
-1.3146330275048967e-05,1.2156174307165202e-06
-7.285033007065067e-06,-2.477802809153218e-06
-4.153655027039349e-06,-2.959553512482671e-06
-3.1901536203804426e-06,-2.5580943656677846e-06
2.992311010530102e-06,-2.156635673600249e-06
1.1824403372884262e-05,-5.448597676149802e-06
1.0700318853196222e-05,-6.733265308866976e-06
5.40106293556164e-06,-5.528889232664369e-06
1.214556959894253e-05,-5.207722551858751e-06
7.729524440946989e-06,-4.886555416305782e-06
8.53244182508206e-06,-5.6894728004408535e-06
-9.419849220648757e-07,-2.6383863769297022e-06
-2.2266528958425624e-06,1.7182486544697895e-07
-8.087950845947489e-06,4.909038125333609e-06
-1.3387205399340019e-05,5.551372396439547e-06
-1.4350706805998925e-05,7.317790277738823e-06
-1.5233915291901212e-05,2.419993961666478e-06
-8.007658834685571e-06,5.71195550946868e-06
-3.1901536203804426e-06,3.324079784761125e-07
-4.0733630157774314e-06,2.5002859729283955e-06
4.758729573950404e-06,-7.916760864645767e-07
8.211274689529091e-06,-2.5580943656677846e-06
1.5598114259773865e-05,-1.032551153912209e-06
1.270761185878655e-05,-1.5143018572416622e-06
1.359082216367824e-05,-5.528889232664369e-06
1.5999574316083454e-05,-6.310925186880922e-07
1.0941194886981975e-05,-1.273426732950611e-06
6.364564342220547e-06,4.929920009999478e-07
-1.423735170646978e-06,2.0185348148515914e-06
-2.4675280201336136e-06,1.536784566269489e-06
-1.1219328371225856e-05,5.551372396439547e-06
-1.4671873941551894e-05,7.0769151534477714e-06
-1.5715666449978016e-05,3.6243704926164355e-06
-1.0898161235672887e-05,3.222911345801549e-06
-1.1781370631069876e-05,1.2156174307165202e-06
-7.76678371039452e-06,-4.2442215999471955e-06
2.623911825594405e-07,-2.2963382662055665e-07
5.5616469580854755e-06,4.929920009999478e-07
8.452149813820142e-06,-2.7989699447061867e-06
1.4634614672104362e-05,-4.5653882807528134e-06
1.0620026841934305e-05,-1.915760549309198e-06
1.7203949028044008e-05,-1.4340103007270955e-06
7.488648861908587e-06,-1.835468992794631e-06
6.203980319696711e-06,1.8579517018224578e-06
3.4268319382135815e-07,-3.601887328841258e-06
-7.011097977738245e-07,2.982036221510498e-06
-7.4456165748415515e-06,3.865245616907487e-06
-1.3628081433125772e-05,3.0623282327724155e-06
-1.6036834495025687e-05,5.230205260886578e-06
-1.2423704902175814e-05,4.58787098978064e-06
-9.693785614217632e-06,3.6243704926164355e-06
-6.401823611668078e-06,-1.7551769815327134e-06
-4.6354052756214514e-06,-2.477802809153218e-06
2.623911825594405e-07,-1.835468992794631e-06
6.203980319696711e-06,-2.397511252638651e-06
8.612733836343978e-06,-3.923054464394227e-06
1.3671114174940158e-05,-6.412098628061358e-06
1.1744111361622345e-05,-8.57997565617552e-06
7.5689399636758026e-06,-1.139018695539562e-05
7.0871897150937e-06,-6.652973752352409e-06
3.6346452816360397e-06,5.732840122618654e-07
-2.1463608845806448e-06,1.536784566269489e-06
-9.372618478664663e-06,4.1864127524604555e-06
-1.419012278347509e-05,4.989330136595527e-06
-1.3306914297572803e-05,5.71195550946868e-06
-1.2503996913437732e-05,5.069621238362743e-06
-1.0336118975828867e-05,5.631663498206763e-06
-4.3945301513304e-06,2.982036221510498e-06
-6.803282303735614e-06,3.4637864700926e-06
1.2258921060492867e-06,-3.2004286367737222e-06
4.357270427135518e-06,1.6170765775314067e-06
9.174776096187998e-06,-1.032551153912209e-06
1.1824403372884262e-05,-1.835468992794631e-06
1.4233156434784178e-05,-2.5580943656677846e-06
1.495578089816263e-05,-5.850056368217338e-06
1.824774153647013e-05,-1.6748854250181466e-06
1.1663819350360427e-05,-8.740559678699356e-06
9.014192073664162e-06,-3.923054464394227e-06
3.3937692478502868e-06,-1.273426732950611e-06
-4.6354052756214514e-06,2.7411610972194467e-06
-1.4270414794737007e-05,4.909038125333609e-06
-1.555508242745418e-05,9.485666851105634e-06
-1.667916694714222e-05,7.719248060311656e-06
-1.1379912393749692e-05,4.02582872993662e-06
-4.6354052756214514e-06,3.544078481354518e-06
-7.285033007065067e-06,1.3762014532403555e-06
-3.270445404268685e-06,1.7776596905605402e-06
1.7879343658933067e-06,-7.113845299500099e-07
7.729524440946989e-06,-4.404804712976329e-06
1.495578089816263e-05,-3.923054464394227e-06
1.2065279406670015e-05,9.15328541850613e-08
1.471490668336628e-05,-3.601887328841258e-06
9.09448408492608e-06,1.8579517018224578e-06
6.926606602064567e-06,1.1353254194546025e-06
3.6346452816360397e-06,1.7776596905605402e-06
-5.405262299973401e-07,5.9528306337597314e-06
-8.649993105791509e-06,2.2594099391426425e-06
-1.4511289919028059e-05,6.755748017894803e-06
-1.555508242745418e-05,4.989330136595527e-06
-1.4591581930289976e-05,9.15328541850613e-08
-1.3708372534892987e-05,-5.508009621735255e-07
-8.730284207558725e-06,-2.2963382662055665e-07
-4.715696832136018e-06,1.536784566269489e-06
1.8682263771552243e-06,-3.3610122045502067e-06
4.517853540164651e-06,-5.288014108373318e-06
1.0138276593352202e-05,-7.054432444419945e-06
1.5196656931948382e-05,-6.572682195837842e-06
1.190469538414618e-05,-6.090931492508389e-06
1.24667376439902e-05,-5.6894728004408535e-06
8.773316949373111e-06,-5.288014108373318e-06
1.3061841173112043e-06,-9.302601029048674e-06
-3.993071459262865e-06,-3.3610122045502067e-06
-6.8835743149975315e-06,6.535751140290813e-07
-1.6598876754869707e-05,1.3762014532403555e-06
-1.788354347809218e-05,3.3032033570634667e-06
-1.675945895840414e-05,5.069621238362743e-06
-1.3628081433125772e-05,-3.039845068997238e-06
-8.810576218820643e-06,-1.915760549309198e-06
-8.616929108029581e-07,-8.719680977264943e-07
-1.9054858739764313e-06,5.872538622497814e-06
4.83902067571762e-06,6.755748017894803e-06
9.255068107449915e-06,1.1353254194546025e-06
8.452149813820142e-06,4.126999897380301e-07
1.6481324564665556e-05,-1.5143018572416622e-06
1.5437532056239434e-05,1.4564925550075714e-06
1.4474030649580527e-05,1.9382437130843755e-06
1.359082216367824e-05,-5.508009621735255e-07
1.439373863831861e-05,5.230205260886578e-06
3.4740612591122044e-06,2.8214521989866626e-06
-4.314238140068483e-06,4.989330136595527e-06
-5.679197784047574e-06,6.916332040418638e-06
-1.2182829777884763e-05,2.7411610972194467e-06
-1.1058745258196723e-05,3.222911345801549e-06
-1.00149527497706e-05,3.7046615943836514e-06
-3.270445404268685e-06,2.419993961666478e-06
-7.686491699132603e-06,-3.9021739439704106e-07
1.14560054953472e-06,-1.4340103007270955e-06
7.0068977038317826e-06,-4.705089509116078e-07
1.0138276593352202e-05,-1.915760549309198e-06
1.302877990383422e-05,-4.966846972820349e-06
1.3911988389736507e-05,-5.368305664887885e-06
1.1503237146825995e-05,-5.047138984082267e-06
1.078061086445814e-05,-6.310925186880922e-07
1.0138276593352202e-05,-1.1931347216886934e-06
2.3499767394241644e-06,2.5002859729283955e-06
-7.814013542883913e-07,2.0185348148515914e-06
-5.598906227533007e-06,7.33867125290999e-07
-1.3547789421863854e-05,5.230205260886578e-06
-1.8847043975256383e-05,4.668163001042558e-06
-1.981054629140999e-05,3.1426193345396314e-06
-1.3628081433125772e-05,1.6973676792986225e-06
-1.1219328371225856e-05,2.982036221510498e-06
-9.372618478664663e-06,-2.2963382662055665e-07
1.5470592416022555e-06,-5.528889232664369e-06
6.203980319696711e-06,-1.915760549309198e-06
7.5689399636758026e-06,-7.857350283302367e-06
8.853608051140327e-06,-8.660267667437438e-06
1.2306153621466365e-05,-6.492390184575925e-06
1.3349946129892487e-05,-5.850056368217338e-06
1.2386445632728282e-05,-2.8792615012207534e-06
9.047254252436687e-07,-3.3610122045502067e-06
-3.7521958802244626e-06,1.1353254194546025e-06
-7.927366823423654e-06,2.90174421024858e-06
-1.4430997907766141e-05,4.427287876751507e-06
-1.788354347809218e-05,4.909038125333609e-06
-1.475216504331911e-05,-1.7551769815327134e-06
-1.1861662642331794e-05,-4.645680292014731e-06
-1.0978453246934805e-05,-2.2963382662055665e-07
-3.7521958802244626e-06,-1.032551153912209e-06
1.0653089930201531e-06,-3.099258378824743e-07
1.9485185021039797e-06,3.324079784761125e-07
7.5689399636758026e-06,-1.4340103007270955e-06
1.1182069101778325e-05,-2.959553512482671e-06
1.3109071915096138e-05,1.536784566269489e-06
1.4875490705890115e-05,-3.842762453132309e-06
1.6401032553403638e-05,-1.6748854250181466e-06
1.0941194886981975e-05,2.90174421024858e-06
5.8828131841437425e-06,4.668163001042558e-06
1.3061841173112043e-06,4.1864127524604555e-06
-5.277739091980038e-06,6.675456916127587e-06
-1.1460203495516907e-05,5.390788373915711e-06
-2.0292296539992094e-05,5.792247520730598e-06
-1.4430997907766141e-05,5.471080385177629e-06
-9.131743354373612e-06,2.419993961666478e-06
-4.314238140068483e-06,2.8214521989866626e-06
-6.963865871512098e-06,-1.1931347216886934e-06
-4.555113719106885e-06,-1.6748854250181466e-06
-9.419849220648757e-07,-2.156635673600249e-06
6.284272330958629e-06,-8.719680977264943e-07
7.2477737376175355e-06,-2.8792615012207534e-06
1.1663819350360427e-05,-2.5580943656677846e-06
1.4072572412260342e-05,-5.609181243926287e-06
1.4795198694628198e-05,-1.1128431651741266e-06
1.2868195881310385e-05,-1.6748854250181466e-06
7.488648861908587e-06,2.0185348148515914e-06
-5.405262299973401e-07,4.507578978518723e-06
-1.0175535862799734e-05,5.792247520730598e-06
-1.667916694714222e-05,4.58787098978064e-06
-1.555508242745418e-05,6.354289780574618e-06
-1.6598876754869707e-05,5.390788373915711e-06
-1.1781370631069876e-05,6.193705758050783e-06
-9.131743354373612e-06,2.0185348148515914e-06
-5.117155524203554e-06,2.521168767088966e-07
-3.799426337991463e-07,-1.835468992794631e-06
6.203980319696711e-06,-5.528889232664369e-06
8.853608051140327e-06,-6.905025884407223e-08
1.1262361113040242e-05,-3.6821788853558246e-06
1.4875490705890115e-05,-1.7551769815327134e-06
1.2948487892572302e-05,-4.725971848529298e-06
1.2386445632728282e-05,-5.207722551858751e-06
6.4448554439877626e-06,2.521168767088966e-07
-2.387236008871696e-06,-1.915760549309198e-06
-1.2631520576178445e-06,-6.492390184575925e-06
-1.0898161235672887e-05,-1.1128431651741266e-06
-1.475216504331911e-05,2.5002859729283955e-06
-1.820471152313985e-05,1.8579517018224578e-06
-1.924850403156597e-05,6.033122645021649e-06
-1.8285003534401767e-05,5.551372396439547e-06
-1.0336118975828867e-05,3.0623282327724155e-06
-7.011097977738245e-07,8.944502383201325e-07
3.1528941235592356e-06,-2.7989699447061867e-06
6.605439466511598e-06,6.535751140290813e-07
7.649232429685071e-06,-3.3610122045502067e-06
1.439373863831861e-05,-7.113845299500099e-07
1.5276948033715598e-05,-6.171223503770307e-06
1.768569927662611e-05,-1.1128431651741266e-06
1.1101777090516407e-05,8.141591365529166e-07
1.021856860461412e-05,-9.522596542410611e-07
1.386476128573122e-06,2.7411610972194467e-06
-4.474821707844967e-06,5.230205260886578e-06
-9.77407762547955e-06,5.631663498206763e-06
-1.4591581930289976e-05,6.83604002915672e-06
-1.3708372534892987e-05,4.346995865489589e-06
-8.087950845947489e-06,-6.905025884407223e-08
-5.920073363085976e-06,2.90174421024858e-06
-6.562407179444563e-06,2.521168767088966e-07
-2.387236008871696e-06,-2.2963382662055665e-07
5.722230071114609e-06,-2.397511252638651e-06
1.158352733909851e-05,-4.404804712976329e-06
1.688278280198574e-05,-5.448597676149802e-06
1.5919282304821536e-05,-3.1201366255118046e-06
1.6802490790723823e-05,-1.6748854250181466e-06
1.5999574316083454e-05,-1.915760549309198e-06
1.0941194886981975e-05,-2.156635673600249e-06
3.7149363834032556e-06,-1.4934227010598988e-07
-5.036863967688987e-06,6.535751140290813e-07
-1.0898161235672887e-05,3.865245616907487e-06
-1.4029539670445956e-05,5.14991324962466e-06
-1.4993040167610161e-05,6.535751140290813e-07
-1.587625047250185e-05,1.2156174307165202e-06
-1.1861662642331794e-05,2.7411610972194467e-06
-8.248533958976623e-06,1.2959094419784378e-06
-1.0222764785794425e-06,-1.7551769815327134e-06
-5.877549824617745e-08,-5.508009621735255e-07
,9.15328541850613e-08
,-4.645680292014731e-06
,-5.288014108373318e-06
,-7.054432444419945e-06
,-5.528889232664369e-06
,-1.032551153912209e-06
,-4.705089509116078e-07
,-9.522596542410611e-07
,4.507578978518723e-06
2.189393626395031e-06,5.230205260886578e-06
1.190469538414618e-05,3.3032033570634667e-06
1.0620026841934305e-05,5.069621238362743e-06
1.1744111361622345e-05,-3.039845068997238e-06
1.2787903870048467e-05,-6.492390184575925e-06
9.897402378555853e-06,8.944502383201325e-07
9.014192073664162e-06,-3.923054464394227e-06
1.8209962604487373e-07,-6.572682195837842e-06
-8.007658834685571e-06,-9.522596542410611e-07
-1.764266926329583e-05,-3.1201366255118046e-06
-2.1496673070942052e-05,-1.1931347216886934e-06
-1.8044127500616014e-05,-2.959553512482671e-06
-1.4912749065842945e-05,-3.099258378824743e-07
-1.0095243851537816e-05,1.7182486544697895e-07
-3.912779448000947e-06,1.4564925550075714e-06
-1.5040271819088957e-06,4.266703854227671e-06
3.554353270374122e-06,2.5002859729283955e-06
1.3430238141154405e-05,4.1864127524604555e-06
1.4795198694628198e-05,4.427287876751507e-06
1.3510530152416322e-05,4.668163001042558e-06
1.696307481324766e-05,9.74742306425469e-07
1.383169637847459e-05,-5.508009621735255e-07
9.014192073664162e-06,1.9382437130843755e-06
8.130982678267173e-06,1.536784566269489e-06
-7.011097977738245e-07,-1.273426732950611e-06
-6.562407179444563e-06,-5.288014108373318e-06
-1.3949247659184039e-05,-4.806263405043865e-06
-1.2985747162019834e-05,-2.3172192413767334e-06
-1.56353744387161e-05,-7.215016012196429e-06
-1.3226622286310885e-05,-1.273426732950611e-06
-1.1058745258196723e-05,2.7411610972194467e-06
-3.83248789148638e-06,2.0185348148515914e-06
-2.868986712201149e-06,2.660869085957529e-06
1.5470592416022555e-06,4.427287876751507e-06
7.167481726355618e-06,5.9528306337597314e-06
1.2225861610204447e-05,4.507578978518723e-06
1.415286442352226e-05,4.106120741198538e-06
1.5919282304821536e-05,-3.9021739439704106e-07
1.326965411863057e-05,1.3762014532403555e-06
8.773316949373111e-06,1.8579517018224578e-06
3.3937692478502868e-06,-3.601887328841258e-06
-3.1901536203804426e-06,-2.8792615012207534e-06
-4.0733630157774314e-06,
-1.61171246872982e-05,
-1.4430997907766141e-05,
-9.77407762547955e-06,
-1.1139036359963939e-05,
-9.854368727246765e-06,
-1.6646107496853801e-06,
3.6346452816360397e-06,
6.52514745524968e-06,
1.0539734830672387e-05,-2.7989699447061867e-06
1.6722198779461905e-05,-3.4413037610647734e-06
1.270761185878655e-05,-4.705089509116078e-07
1.0539734830672387e-05,1.1241300335029791e-08
9.897402378555853e-06,-3.4413037610647734e-06
5.722230071114609e-06,2.33970195040456e-06
3.0726030217920197e-06,1.536784566269489e-06
-1.423735170646978e-06,3.7046615943836514e-06
-1.0416410987090785e-05,5.631663498206763e-06
-1.4270414794737007e-05,5.069621238362743e-06
-1.7722961274557747e-05,7.719248060311656e-06
-1.2423704902175814e-05,7.237499175971607e-06
-9.533201591693796e-06,1.4564925550075714e-06
-6.8835743149975315e-06,-9.522596542410611e-07
-1.2631520576178445e-06,-1.6748854250181466e-06
-4.876280399912503e-06,-2.3172192413767334e-06
1.0653089930201531e-06,-2.8792615012207534e-06
8.291566700791009e-06,-2.397511252638651e-06
1.7043366824509576e-05,-6.89384887664346e-06
1.8167451344197616e-05,-9.864644198387396e-06
1.2868195881310385e-05,-6.171223503770307e-06
1.190469538414618e-05,-1.6748854250181466e-06
9.255068107449915e-06,2.5002859729283955e-06
4.229747503359249e-07,2.982036221510498e-06
-5.438322659756523e-06,3.4637864700926e-06
-1.932879604282789e-05,3.865245616907487e-06
-2.117550502589438e-05,7.558665402029874e-06
-1.948937824636232e-05,3.0623282327724155e-06
-1.4832457054581027e-05,2.5002859729283955e-06
-4.95657241117442e-06,-1.4934227010598988e-07
-3.6719040963362204e-06,-1.594593413756229e-06
-2.1935906602266186e-07,2.419993961666478e-06
9.415650310984347e-06,-1.273426732950611e-06
8.130982678267173e-06,-5.76976435695542e-06
1.632074054214172e-05,-5.207722551858751e-06
1.7364533050567843e-05,-1.5143018572416622e-06
2.025503636104986e-05,-2.959553512482671e-06
1.7605409084353596e-05,-7.916760864645767e-07
7.167481726355618e-06,4.126999897380301e-07
5.802522082376527e-06,7.33867125290999e-07
-7.011097977738245e-07,3.0623282327724155e-06
-6.562407179444563e-06,7.558665402029874e-06
-1.1861662642331794e-05,6.916332040418638e-06
-1.2825163139495999e-05,3.9455367186747026e-06
-1.3708372534892987e-05,2.521168767088966e-07
-1.2905455150757916e-05,-2.2963382662055665e-07
-1.0737578122643754e-05,1.0550343176873866e-06
-6.160948487377027e-06,6.535751140290813e-07
2.8317269880062668e-06,-3.3610122045502067e-06
9.335360118711833e-06,-6.010639935993822e-06
1.0459444638399873e-05,-4.5653882807528134e-06
1.3109071915096138e-05,-4.725971848529298e-06
1.415286442352226e-05,-3.4413037610647734e-06
1.3189363926358055e-05,-1.4340103007270955e-06
8.773316949373111e-06,-2.477802809153218e-06
6.364564342220547e-06,1.9382437130843755e-06
-2.1935906602266186e-07,1.3762014532403555e-06
-2.868986712201149e-06,1.8579517018224578e-06
-8.489409083267674e-06,4.346995865489589e-06
-1.651858474360779e-05,-1.4340103007270955e-06
-1.5474792235181667e-05,-3.842762453132309e-06
-1.643829273234587e-05,-2.2963382662055665e-07
-1.555508242745418e-05,3.0623282327724155e-06
-9.934660738508683e-06,2.5002859729283955e-06
-4.876280399912503e-06,-1.4934227010598988e-07
1.0653089930201531e-06,1.2959094419784378e-06
8.291566700791009e-06,-3.601887328841258e-06
1.1182069101778325e-05,-2.959553512482671e-06
1.5598114259773865e-05,-2.397511252638651e-06
1.4795198694628198e-05,-6.090931492508389e-06
1.5517822248511948e-05,1.3762014532403555e-06
1.2225861610204447e-05,2.419993961666478e-06
5.641938059852691e-06,1.4564925550075714e-06
1.2258921060492867e-06,4.106120741198538e-06
-6.000364919600543e-06,1.6973676792986225e-06
-1.0817870133905672e-05,3.865245616907487e-06
-1.5233915291901212e-05,4.507578978518723e-06
-1.764266926329583e-05,6.2739977693127e-06
-1.4029539670445956e-05,2.5805770746956114e-06
-4.153655027039349e-06,-8.719680977264943e-07
-2.788694928312907e-06,-4.705089509116078e-07
-1.5040271819088957e-06,-2.477802809153218e-06
6.6857314777735155e-06,-2.156635673600249e-06
5.641938059852691e-06,-3.1201366255118046e-06
1.0459444638399873e-05,-3.923054464394227e-06
1.6641906768199988e-05,-4.163929588685278e-06
1.4233156434784178e-05,-1.4340103007270955e-06
1.495578089816263e-05,3.324079784761125e-07
1.0379152627137955e-05,-1.9960521058237646e-06
4.9996046982414555e-06,1.2959094419784378e-06
-1.5843187384234625e-06,2.5805770746956114e-06
-9.533201591693796e-06,5.390788373915711e-06
-1.2664580026466865e-05,2.90174421024858e-06
-1.7482085240771994e-05,6.595164904865669e-06
-1.4832457054581027e-05,3.1426193345396314e-06
-1.2423704902175814e-05,1.8579517018224578e-06
-8.810576218820643e-06,2.2594099391426425e-06
-2.868986712201149e-06,-2.477802809153218e-06
-2.066069328066078e-06,-1.835468992794631e-06
4.517853540164651e-06,-2.397511252638651e-06
7.167481726355618e-06,-2.8792615012207534e-06
9.576234333508182e-06,-6.33180661679944e-06
1.3109071915096138e-05,-1.5143018572416622e-06
1.6722198779461905e-05,-2.7989699447061867e-06
8.130982678267173e-06,1.1241300335029791e-08
9.255068107449915e-06,-3.099258378824743e-07
3.955811280320631e-06,2.0185348148515914e-06
-2.788694928312907e-06,2.8214521989866626e-06
-1.2503996913437732e-05,5.872538622497814e-06
-1.6358000721083954e-05,4.668163001042558e-06
-2.45477585849585e-05,-7.916760864645767e-07
-1.7160919014713727e-05,1.6170765775314067e-06
-1.0416410987090785e-05,2.33970195040456e-06
-4.233946583553916e-06,4.126999897380301e-07
-1.8251943174618646e-06,-8.57997565617552e-06
1.7879343658933067e-06,-4.725971848529298e-06
9.014192073664162e-06,-3.601887328841258e-06
1.383169637847459e-05,-6.733265308866976e-06
1.471490668336628e-05,-3.842762453132309e-06
1.8729493604041636e-05,-1.1931347216886934e-06
1.800686732167378e-05,-3.9021739439704106e-07
8.130982678267173e-06,1.7776596905605402e-06
3.955811280320631e-06,7.719248060311656e-06
2.6711438749771332e-06,5.310496362653794e-06
-3.1901536203804426e-06,7.478374300262658e-06
-1.057699500961462e-05,6.83604002915672e-06
-1.732150121824816e-05,7.39808228900074e-06
-1.4671873941551894e-05,6.916332040418638e-06
-1.5474792235181667e-05,3.4637864700926e-06
-7.4456165748415515e-06,1.2959094419784378e-06
-2.1463608845806448e-06,2.5002859729283955e-06
-1.182860046355927e-06,-7.916760864645767e-07
3.2331861348211532e-06,-2.959553512482671e-06
8.853608051140327e-06,-4.163929588685278e-06
1.102148507925449e-05,-5.930347924731905e-06
1.4313448446046095e-05,-6.2515150602848735e-06
1.4875490705890115e-05,-4.2442215999471955e-06
1.2225861610204447e-05,-1.7551769815327134e-06
8.773316949373111e-06,3.3032033570634667e-06
2.1091016151331132e-06,1.1353254194546025e-06
-4.6354052756214514e-06,4.427287876751507e-06
-1.0817870133905672e-05,4.989330136595527e-06
-1.8044127500616014e-05,3.4637864700926e-06
-1.3226622286310885e-05,2.982036221510498e-06
-1.2343412890913896e-05,4.266703854227671e-06
-1.3146330275048967e-05,1.4564925550075714e-06
-1.0978453246934805e-05,4.126999897380301e-07
-6.401823611668078e-06,-1.273426732950611e-06
1.386476128573122e-06,-4.0033460209087934e-06
4.517853540164651e-06,-3.6821788853558246e-06
7.408356850646669e-06,-1.9960521058237646e-06
1.5357240044977516e-05,-4.0033460209087934e-06
1.6401032553403638e-05,-4.2442215999471955e-06
1.439373863831861e-05,-3.7624708966177423e-06
1.3430238141154405e-05,-3.52159531757934e-06
9.014192073664162e-06,-6.310925186880922e-07
1.7879343658933067e-06,-4.324513156461762e-06
8.244334139817511e-07,3.1426193345396314e-06
-7.124449439288583e-06,2.098826826113509e-06
-1.675945895840414e-05,3.0623282327724155e-06
-2.061346276605036e-05,4.126999897380301e-07
-2.40660083363764e-05,-1.9960521058237646e-06
-1.876675378298387e-05,-7.054432444419945e-06
-8.087950845947489e-06,1.7182486544697895e-07
-3.912779448000947e-06,-4.645680292014731e-06
-5.1974475354654714e-06,-7.295307568710996e-06
2.992311010530102e-06,-4.886555416305782e-06
1.0379152627137955e-05,-8.499683644913603e-06
9.415650310984347e-06,-5.207722551858751e-06
1.0298860615876038e-05,1.7182486544697895e-07
7.890107553976122e-06,3.784953605645569e-06
1.1503237146825995e-05,-7.916760864645767e-07
6.926606602064567e-06,9.74742306425469e-07
1.5470592416022555e-06,2.5002859729283955e-06
-2.066069328066078e-06,-9.522596542410611e-07
-1.0657286111381836e-05,2.098826826113509e-06
-1.1781370631069876e-05,5.792247520730598e-06
-8.649993105791509e-06,8.281290320155676e-06
-9.613493602955714e-06,6.113414656283567e-06
-3.4310289720451692e-06,4.909038125333609e-06
-1.0222764785794425e-06,8.944502383201325e-07
2.5908518637152156e-06,2.419993961666478e-06
8.53244182508206e-06,-1.032551153912209e-06
1.0941194886981975e-05,-6.310925186880922e-07
1.752511707309168e-05,-1.835468992794631e-06
1.6641906768199988e-05,-4.324513156461762e-06
1.744482506182976e-05,-1.9960521058237646e-06
1.5276948033715598e-05,2.5002859729283955e-06
9.335360118711833e-06,-7.916760864645767e-07
6.926606602064567e-06,2.1791188373754267e-06
-2.5478195766481804e-06,5.872538622497814e-06
-9.051451343111694e-06,3.3834944588306826e-06
-1.2503996913437732e-05,4.668163001042558e-06
-1.3547789421863854e-05,5.069621238362743e-06
-1.4511289919028059e-05,1.0550343176873866e-06
-1.3628081433125772e-05,-4.705089509116078e-07
-4.795988843397936e-06,-1.915760549309198e-06
-1.3434436141324113e-06,-6.310925186880922e-07
-2.996510772845795e-07,-1.835468992794631e-06
4.517853540164651e-06,-4.324513156461762e-06
1.24667376439902e-05,-3.3610122045502067e-06
1.3510530152416322e-05,-2.5580943656677846e-06
1.2547029655252118e-05,-1.7551769815327134e-06
1.1663819350360427e-05,-5.448597676149802e-06
6.6857314777735155e-06,-6.010639935993822e-06
5.8828131841437425e-06,-1.1128431651741266e-06
-7.011097977738245e-07,-4.705089509116078e-07
-6.8835743149975315e-06,2.5002859729283955e-06
-1.4109831681707874e-05,-1.4934227010598988e-07
-1.700033499218989e-05,7.317790277738823e-06
-1.61171246872982e-05,2.0185348148515914e-06
-1.531420821265783e-05,-8.719680977264943e-07
-1.1701078619807959e-05,1.7776596905605402e-06
-9.77407762547955e-06,2.5805770746956114e-06
-1.1540495506778825e-05,1.8579517018224578e-06
-3.4310289720451692e-06,-2.718677933444269e-06
7.167481726355618e-06,-5.6894728004408535e-06
1.134265312430216e-05,-4.163929588685278e-06
1.5196656931948382e-05,-6.652973752352409e-06
1.864920159277972e-05,-1.0667561582522467e-05
1.5517822248511948e-05,-1.3317188859218732e-05
1.6481324564665556e-05,-5.850056368217338e-06
3.2331861348211532e-06,-5.508009621735255e-07
-2.387236008871696e-06,4.126999897380301e-07
-7.011097977738245e-07,4.828746114071691e-06
-1.4832457054581027e-05,1.2055003935529385e-05
-1.2985747162019834e-05,7.237499175971607e-06
-1.1299620382487774e-05,8.120708116621245e-06
-9.77407762547955e-06,-7.113845299500099e-07
-8.409117072005756e-06,2.7411610972194467e-06
-4.555113719106885e-06,3.784953605645569e-06
-1.1025684898413601e-06,2.8214521989866626e-06
4.196687314106384e-06,1.7182486544697895e-07
7.0871897150937e-06,-2.2369276848621666e-06
1.326965411863057e-05,-2.959553512482671e-06
1.7284241039305925e-05,-6.2515150602848735e-06
1.6561616575927474e-05,-3.280720193288289e-06
9.335360118711833e-06,-3.7624708966177423e-06
8.371858712052926e-06,7.33867125290999e-07
3.955811280320631e-06,3.7046615943836514e-06
-1.6646107496853801e-06,5.230205260886578e-06
-5.277739091980038e-06,2.7411610972194467e-06
-1.3868956557416823e-05,5.792247520730598e-06
-1.732150121824816e-05,2.982036221510498e-06
-1.836529372667428e-05,-1.032551153912209e-06
-1.1620787518040743e-05,-5.508009621735255e-07
-5.438322659756523e-06,-1.9960521058237646e-06
-1.423735170646978e-06,-3.280720193288289e-06
7.441418574671843e-07,-4.485096724238247e-06
5.320771833794424e-06,-6.2515150602848735e-06
9.495942322246265e-06,-5.930347924731905e-06
1.3189363926358055e-05,-5.1274305405968335e-06
1.1744111361622345e-05,-4.324513156461762e-06
1.4795198694628198e-05,-6.572682195837842e-06
1.439373863831861e-05,-3.842762453132309e-06
3.7952283946651733e-06,1.0550343176873866e-06
1.3061841173112043e-06,3.544078481354518e-06
-3.7521958802244626e-06,4.507578978518723e-06
-1.1781370631069876e-05,5.310496362653794e-06
-1.708062700345181e-05,5.069621238362743e-06
-1.61171246872982e-05,6.2739977693127e-06
-1.3467497410601936e-05,3.3834944588306826e-06
-1.2664580026466865e-05,1.3762014532403555e-06
-3.1901536203804426e-06,1.6973676792986225e-06
-1.9054858739764313e-06,-6.310925186880922e-07
1.5470592416022555e-06,1.7182486544697895e-07
4.678437562688487e-06,-4.0033460209087934e-06
1.1422945135564078e-05,-1.2996021723665763e-05
8.773316949373111e-06,-3.923054464394227e-06
1.439373863831861e-05,-5.047138984082267e-06
1.3671114174940158e-05,-6.090931492508389e-06
3.7952283946651733e-06,2.660869085957529e-06
-3.270445404268685e-06,3.784953605645569e-06
-1.9857773168041604e-06,4.828746114071691e-06
-5.438322659756523e-06,5.792247520730598e-06
-1.0737578122643754e-05,8.441874342679512e-06
-1.3628081433125772e-05,6.033122645021649e-06
-1.6277708709822036e-05,3.865245616907487e-06
-1.3868956557416823e-05,5.792247520730598e-06
-7.285033007065067e-06,2.8214521989866626e-06
6.638503009526175e-07,2.33970195040456e-06
3.7952283946651733e-06,8.944502383201325e-07
2.8317269880062668e-06,-3.9021739439704106e-07
9.014192073664162e-06,-4.886555416305782e-06
1.4634614672104362e-05,-3.1201366255118046e-06
1.102148507925449e-05,-3.601887328841258e-06
1.2948487892572302e-05,-5.047138984082267e-06
1.2386445632728282e-05,-4.645680292014731e-06
7.488648861908587e-06,6.535751140290813e-07
2.623911825594405e-07,1.3762014532403555e-06
-6.482115622929996e-06,2.0185348148515914e-06
-7.365324563579634e-06,3.784953605645569e-06
-1.1379912393749692e-05,4.266703854227671e-06
-1.2102537766622845e-05,4.748454102809774e-06
-1.539450022391975e-05,3.4637864700926e-06
-8.810576218820643e-06,6.535751140290813e-07
-6.160948487377027e-06,3.1426193345396314e-06
-6.963865871512098e-06,-1.915760549309198e-06
3.955811280320631e-06,-1.1931347216886934e-06
8.612733836343978e-06,-3.1201366255118046e-06
7.2477737376175355e-06,-4.886555416305782e-06
8.53244182508206e-06,-5.368305664887885e-06
1.439373863831861e-05,-6.8135573201288935e-06
1.5437532056239434e-05,-1.915760549309198e-06
1.0620026841934305e-05,-1.273426732950611e-06
4.4375624383974355e-06,4.929920009999478e-07
4.116395302844467e-06,2.660869085957529e-06
-1.5040271819088957e-06,4.1864127524604555e-06
-6.562407179444563e-06,5.631663498206763e-06
-1.5153624190133996e-05,6.033122645021649e-06
-1.8606169760460034e-05,8.040416105359327e-06
-1.3306914297572803e-05,4.748454102809774e-06
-1.0416410987090785e-05,3.4637864700926e-06
-4.233946583553916e-06,-1.835468992794631e-06
-2.1935906602266186e-07,-6.89384887664346e-06
4.83902067571762e-06,-7.536183147749398e-06
9.415650310984347e-06,-4.5653882807528134e-06
8.853608051140327e-06,-1.915760549309198e-06
6.203980319696711e-06,-4.705089509116078e-07
6.6857314777735155e-06,-3.52159531757934e-06
1.3349946129892487e-05,-1.5143018572416622e-06
1.0459444638399873e-05,-4.705089509116078e-07
1.134265312430216e-05,-1.4934227010598988e-07
-7.011097977738245e-07,3.784953605645569e-06
9.850169817582355e-07,3.3032033570634667e-06
-6.803282303735614e-06,7.799540071573574e-06
-1.667916694714222e-05,6.033122645021649e-06
-1.2825163139495999e-05,5.551372396439547e-06
-9.372618478664663e-06,1.0550343176873866e-06
-8.32882597023854e-06,4.02582872993662e-06
-3.5113207559334114e-06,-8.719680977264943e-07
9.047254252436687e-07,-2.2963382662055665e-07
4.919312686979538e-06,-7.916760864645767e-07
8.53244182508206e-06,-2.3172192413767334e-06
1.57586982822977e-05,-8.719680977264943e-07
1.6722198779461905e-05,-3.039845068997238e-06
1.5838990293559618e-05,-2.2963382662055665e-07
1.6641906768199988e-05,-1.9960521058237646e-06
1.0057984582090285e-05,-1.6748854250181466e-06
3.8755201785534155e-06,-3.6821788853558246e-06
-3.350737188156927e-06,4.929920009999478e-07
-1.0095243851537816e-05,2.2594099391426425e-06
-1.6277708709822036e-05,8.201000127883162e-06
-1.868646177172195e-05,5.792247520730598e-06
-1.7963835489354096e-05,2.1791188373754267e-06
-1.3387205399340019e-05,1.536784566269489e-06
-4.3945301513304e-06,-2.2963382662055665e-07
-5.405262299973401e-07,1.2959094419784378e-06
5.835582896906999e-07,-2.156635673600249e-06
5.8828131841437425e-06,-3.4413037610647734e-06
1.0700318853196222e-05,-2.2369276848621666e-06
1.5116364920686465e-05,-3.280720193288289e-06
1.270761185878655e-05,-6.33180661679944e-06
1.1984987395408098e-05,-4.324513156461762e-06
1.2627321666514035e-05,-3.099258378824743e-07
6.043397206667578e-06,1.7182486544697895e-07
1.6273512528641731e-06,2.660869085957529e-06
-4.876280399912503e-06,5.551372396439547e-06
-1.2102537766622845e-05,5.14991324962466e-06
-1.6920042980927974e-05,5.551372396439547e-06
-2.1336089048418216e-05,3.0623282327724155e-06
-1.4109831681707874e-05,2.7411610972194467e-06
-7.365324563579634e-06,-5.508009621735255e-07
2.3499767394241644e-06,1.6170765775314067e-06
-4.153655027039349e-06,-2.0763441170856822e-06
-1.00149527497706e-05,-2.5580943656677846e-06
-2.628111587910098e-06,-4.725971848529298e-06
9.977692570828367e-06,-4.324513156461762e-06
1.5116364920686465e-05,-6.090931492508389e-06
1.6641906768199988e-05,-3.039845068997238e-06
1.24667376439902e-05,-3.4413037610647734e-06
1.3751406186202075e-05,-3.1201366255118046e-06
7.890107553976122e-06,-8.178517418855336e-06
4.758729573950404e-06,-8.901142791728489e-06
-3.993071459262865e-06,-3.099258378824743e-07
-7.4456165748415515e-06,1.0288585144735407e-05
-1.4832457054581027e-05,6.113414656283567e-06
-1.9649962268886156e-05,7.39808228900074e-06
-1.3467497410601936e-05,1.536784566269489e-06
-7.847074812161736e-06,4.929920009999478e-07
-1.2631520576178445e-06,1.4564925550075714e-06
-3.799426337991463e-07,5.732840122618654e-07
5.240479822532507e-06,-1.835468992794631e-06
1.0298860615876038e-05,-4.0033460209087934e-06
1.0941194886981975e-05,-3.3610122045502067e-06
1.270761185878655e-05,-5.1274305405968335e-06
1.5357240044977516e-05,-7.777058272040449e-06
1.190469538414618e-05,-3.280720193288289e-06
7.890107553976122e-06,8.944502383201325e-07
1.9485185021039797e-06,2.419993961666478e-06
-4.6023419031371304e-07,5.872538622497814e-06
-4.0733630157774314e-06,6.2739977693127e-06
-1.2664580026466865e-05,5.872538622497814e-06
-1.61171246872982e-05,4.106120741198538e-06
-1.5073332178872079e-05,4.427287876751507e-06
-1.2182829777884763e-05,2.419993961666478e-06
-7.76678371039452e-06,3.222911345801549e-06
-5.405262299973401e-07,-4.705089509116078e-07
2.3499767394241644e-06,-1.9960521058237646e-06
8.53244182508206e-06,-1.5143018572416622e-06
1.0941194886981975e-05,-2.7989699447061867e-06
1.3109071915096138e-05,-3.2004286367737222e-06
1.24667376439902e-05,-3.52159531757934e-06
1.302877990383422e-05,-3.2004286367737222e-06
8.130982678267173e-06,-2.397511252638651e-06
1.0057984582090285e-05,1.2156174307165202e-06
1.0653089930201531e-06,1.6973676792986225e-06
-5.438322659756523e-06,5.71195550946868e-06
-9.051451343111694e-06,3.9455367186747026e-06
-1.4912749065842945e-05,6.595164904865669e-06
-1.595654248376377e-05,4.106120741198538e-06
-1.3066039173281752e-05,1.9382437130843755e-06
-1.0416410987090785e-05,7.33867125290999e-07
-4.795988843397936e-06,-1.032551153912209e-06
-1.182860046355927e-06,-7.113845299500099e-07
3.3937692478502868e-06,-1.5143018572416622e-06
4.229747503359249e-07,-7.113845299500099e-07
8.53244182508206e-06,-2.959553512482671e-06
7.408356850646669e-06,-4.404804712976329e-06
1.0539734830672387e-05,-5.76976435695542e-06
1.7284241039305925e-05,-8.981434802990407e-06
9.335360118711833e-06,-4.966846972820349e-06
6.203980319696711e-06,-6.905025884407223e-08
1.386476128573122e-06,3.222911345801549e-06
-4.795988843397936e-06,1.4564925550075714e-06
-8.810576218820643e-06,4.106120741198538e-06
-1.6839750969666056e-05,7.558665402029874e-06
-1.3708372534892987e-05,2.660869085957529e-06
-1.0817870133905672e-05,3.3032033570634667e-06
-4.6354052756214514e-06,-8.719680977264943e-07
9.850169817582355e-07,-1.3537182894651778e-06
2.623911825594405e-07,2.098826826113509e-06
2.189393626395031e-06,-3.6821788853558246e-06
6.364564342220547e-06,-1.273426732950611e-06
1.4474030649580527e-05,-4.886555416305782e-06
1.7926575310411863e-05,-4.2442215999471955e-06
1.2627321666514035e-05,-2.477802809153218e-06
9.736818356032018e-06,-9.522596542410611e-07
8.853608051140327e-06,-4.705089509116078e-07
3.2331861348211532e-06,1.6973676792986225e-06
-3.799426337991463e-07,4.507578978518723e-06
-6.3215320551535115e-06,8.52216635394143e-06
-1.5153624190133996e-05,3.6243704926164355e-06
-1.6277708709822036e-05,5.551372396439547e-06
-1.3146330275048967e-05,6.113414656283567e-06
-1.2182829777884763e-05,2.419993961666478e-06
-4.233946583553916e-06,-6.905025884407223e-08
-1.1025684898413601e-06,-4.705089509116078e-07
3.7149363834032556e-06,-2.477802809153218e-06
2.8317269880062668e-06,-4.2442215999471955e-06
1.0057984582090285e-05,-2.5580943656677846e-06
1.4875490705890115e-05,-5.850056368217338e-06
1.57586982822977e-05,-3.6821788853558246e-06
1.1744111361622345e-05,-5.6894728004408535e-06
1.102148507925449e-05,-3.2004286367737222e-06
6.4448554439877626e-06,1.8579517018224578e-06
1.0653089930201531e-06,4.02582872993662e-06
-5.51861467101844e-06,4.668163001042558e-06
-1.1701078619807959e-05,6.434580882341834e-06
-1.5474792235181667e-05,2.0185348148515914e-06
-1.4671873941551894e-05,6.916332040418638e-06
-1.6839750969666056e-05,3.6243704926164355e-06
-1.0898161235672887e-05,6.595164904865669e-06
-5.277739091980038e-06,2.90174421024858e-06
-4.555113719106885e-06,2.419993961666478e-06
1.386476128573122e-06,-1.594593413756229e-06
5.40106293556164e-06,-6.492390184575925e-06
7.5689399636758026e-06,-5.850056368217338e-06
6.926606602064567e-06,-6.412098628061358e-06
9.897402378555853e-06,-2.718677933444269e-06
1.2547029655252118e-05,-6.171223503770307e-06
7.0871897150937e-06,-3.9021739439704106e-07
6.364564342220547e-06,-1.1931347216886934e-06
1.7879343658933067e-06,-4.705089509116078e-07
-4.795988843397936e-06,4.106120741198538e-06
-1.2744872037728783e-05,4.668163001042558e-06
-1.3788664546154905e-05,2.0185348148515914e-06
-8.971159331849776e-06,3.4637864700926e-06
-1.1620787518040743e-05,-3.2004286367737222e-06
-7.606200142618036e-06,-8.0179333963315e-06
-5.438322659756523e-06,-6.905025884407223e-08
-3.5113207559334114e-06,-1.1128431651741266e-06
3.0726030217920197e-06,-2.0763441170856822e-06
1.102148507925449e-05,-2.959553512482671e-06
1.415286442352226e-05,-5.368305664887885e-06
1.7043366824509576e-05,-1.7551769815327134e-06
1.969299410120584e-05,-3.6821788853558246e-06
1.4072572412260342e-05,-7.113845299500099e-07
7.488648861908587e-06,-2.2963382662055665e-07
4.83902067571762e-06,3.222911345801549e-06
-2.387236008871696e-06,1.9382437130843755e-06
-1.1139036359963939e-05,4.748454102809774e-06
-1.2263120879651979e-05,5.792247520730598e-06
-1.756237725203391e-05,5.471080385177629e-06
-1.2744872037728783e-05,1.536784566269489e-06
-6.562407179444563e-06,3.0623282327724155e-06
-5.7594897953094915e-06,-3.9021739439704106e-07
-5.036863967688987e-06,2.660869085957529e-06
2.189393626395031e-06,-3.4413037610647734e-06
1.2258921060492867e-06,9.74742306425469e-07
5.641938059852691e-06,-1.4340103007270955e-06
9.6565263447701e-06,-2.156635673600249e-06
1.471490668336628e-05,-2.7989699447061867e-06
1.1422945135564078e-05,-3.3610122045502067e-06
1.0860902875720058e-05,-7.113845299500099e-07
7.167481726355618e-06,-1.1931347216886934e-06
3.7149363834032556e-06,1.8579517018224578e-06
-2.9492784960893914e-06,3.0623282327724155e-06
-9.693785614217632e-06,2.0185348148515914e-06
-1.587625047250185e-05,7.0769151534477714e-06
-1.3547789421863854e-05,1.0550343176873866e-06
-1.4350706805998925e-05,3.222911345801549e-06
-7.76678371039452e-06,2.5805770746956114e-06
-3.350737188156927e-06,2.0185348148515914e-06
-2.5478195766481804e-06,-6.090931492508389e-06
2.5105607619479997e-06,-2.6383863769297022e-06
8.452149813820142e-06,-5.76976435695542e-06
1.24667376439902e-05,-1.0587269571260549e-05
1.1744111361622345e-05,-9.70406017586356e-06
1.5036072909424547e-05,-8.901142791728489e-06
1.326965411863057e-05,-5.288014108373318e-06
6.203980319696711e-06,6.535751140290813e-07
5.240479822532507e-06,3.0623282327724155e-06
-6.241240043891594e-06,5.230205260886578e-06
-1.0898161235672887e-05,7.157207164709689e-06
-1.5073332178872079e-05,7.719248060311656e-06
-1.89273359865183e-05,5.069621238362743e-06
-1.780325146683026e-05,3.6243704926164355e-06
-1.2503996913437732e-05,2.33970195040456e-06
-3.7521958802244626e-06,1.1353254194546025e-06
-2.628111587910098e-06,1.4564925550075714e-06
5.032667331761331e-07,3.784953605645569e-06
3.3937692478502868e-06,4.929920009999478e-07
1.3109071915096138e-05,-2.5580943656677846e-06
1.696307481324766e-05,-5.368305664887885e-06
1.80871593329357e-05,-5.047138984082267e-06
1.495578089816263e-05,-2.718677933444269e-06
1.2065279406670015e-05,-5.448597676149802e-06
7.649232429685071e-06,1.1241300335029791e-08
8.452149813820142e-06,4.02582872993662e-06
3.3937692478502868e-06,3.3032033570634667e-06
-6.482115622929996e-06,6.595164904865669e-06
-1.6358000721083954e-05,6.033122645021649e-06
-1.2503996913437732e-05,4.507578978518723e-06
-1.3628081433125772e-05,4.989330136595527e-06
-8.32882597023854e-06,9.74742306425469e-07
-3.5113207559334114e-06,4.929920009999478e-07
-2.628111587910098e-06,-9.522596542410611e-07
-3.4310289720451692e-06,-4.0033460209087934e-06
1.6273512528641731e-06,-6.010639935993822e-06
1.1503237146825995e-05,-1.9960521058237646e-06
1.5678406271035783e-05,-6.89384887664346e-06
1.439373863831861e-05,-2.3172192413767334e-06
1.326965411863057e-05,-2.8792615012207534e-06
1.2225861610204447e-05,-1.3537182894651778e-06
7.408356850646669e-06,9.15328541850613e-08
2.992311010530102e-06,-3.099258378824743e-07
-1.0222764785794425e-06,3.3834944588306826e-06
-7.606200142618036e-06,5.872538622497814e-06
-1.732150121824816e-05,6.2739977693127e-06
-1.3467497410601936e-05,4.266703854227671e-06
,5.551372396439547e-06
,3.0623282327724155e-06
,1.3762014532403555e-06
,-1.3537182894651778e-06
,-3.099258378824743e-07
,-1.273426732950611e-06
,-4.5653882807528134e-06
,-8.57997565617552e-06
,-1.1229603842366487e-05
,-7.777058272040449e-06
-1.5474792235181667e-05,-3.7624708966177423e-06
-1.2022245755360927e-05,-1.1128431651741266e-06
-4.6354052756214514e-06,3.3834944588306826e-06
1.8209962604487373e-07,3.9455367186747026e-06
1.0653089930201531e-06,7.63895695854444e-06
6.6857314777735155e-06,8.120708116621245e-06
1.326965411863057e-05,2.33970195040456e-06
1.415286442352226e-05,-6.905025884407223e-08
1.8167451344197616e-05,4.989330136595527e-06
1.4554322660842445e-05,4.126999897380301e-07
4.678437562688487e-06,-1.3537182894651778e-06
3.313478146083071e-06,-8.719680977264943e-07
-5.7594897953094915e-06,-2.3172192413767334e-06
-1.3949247659184039e-05,-3.601887328841258e-06
-1.708062700345181e-05,-4.0033460209087934e-06
-1.9971128494944423e-05,1.1241300335029791e-08
-1.555508242745418e-05,4.929920009999478e-07
-1.3146330275048967e-05,1.9382437130843755e-06
-9.533201591693796e-06,3.222911345801549e-06
3.4268319382135815e-07,5.230205260886578e-06
1.7076432641260908e-06,4.909038125333609e-06
2.992311010530102e-06,9.967417099687736e-06
8.853608051140327e-06,6.354289780574618e-06
1.415286442352226e-05,3.0623282327724155e-06
1.5116364920686465e-05,-1.1128431651741266e-06
1.7765991287888028e-05,-6.310925186880922e-07
1.5357240044977516e-05,-6.090931492508389e-06
8.773316949373111e-06,-2.477802809153218e-06
6.1236892179294955e-06,-3.1201366255118046e-06
-1.1025684898413601e-06,-4.886555416305782e-06
-7.847074812161736e-06,-3.3610122045502067e-06
-1.2263120879651979e-05,-5.850056368217338e-06
-1.4671873941551894e-05,-3.6821788853558246e-06
-1.3949247659184039e-05,-2.477802809153218e-06
-9.372618478664663e-06,-2.156635673600249e-06
-6.401823611668078e-06,8.944502383201325e-07
-2.7084031444246648e-06,3.7046615943836514e-06
2.751435886239051e-06,5.471080385177629e-06
9.335360118711833e-06,3.784953605645569e-06
1.021856860461412e-05,6.5148728936037514e-06
1.4233156434784178e-05,3.222911345801549e-06
1.2065279406670015e-05,
1.270761185878655e-05,
1.0941194886981975e-05,
4.9996046982414555e-06,
9.850169817582355e-07,
-2.628111587910098e-06,
-7.204740995803149e-06,
-1.619741669856012e-05,
-1.7482085240771994e-05,
-1.4029539670445956e-05,
-1.2905455150757916e-05,4.909038125333609e-06
-7.606200142618036e-06,1.1241300335029791e-08
-4.715696832136018e-06,-1.915760549309198e-06
1.4667672303403378e-06,-1.4934227010598988e-07
7.0871897150937e-06,-5.047138984082267e-06
9.255068107449915e-06,-8.339100531884469e-06
1.383169637847459e-05,-5.368305664887885e-06
1.439373863831861e-05,-5.850056368217338e-06
1.1744111361622345e-05,-9.302601029048674e-06
8.291566700791009e-06,-5.288014108373318e-06
4.2769784158736e-06,-3.9021739439704106e-07
-6.208177865119069e-07,1.536784566269489e-06
-1.0496702998352703e-05,4.507578978518723e-06
-2.037258855125401e-05,6.033122645021649e-06
-1.651858474360779e-05,5.551372396439547e-06
-1.539450022391975e-05,5.9528306337597314e-06
-1.2263120879651979e-05,6.354289780574618e-06
-9.372618478664663e-06,5.310496362653794e-06
-3.1901536203804426e-06,2.521168767088966e-07
-2.387236008871696e-06,2.419993961666478e-06
7.0871897150937e-06,-2.156635673600249e-06
8.371858712052926e-06,-1.594593413756229e-06
1.4233156434784178e-05,-2.0763441170856822e-06
1.5276948033715598e-05,-3.52159531757934e-06
2.0094452338526025e-05,-1.3537182894651778e-06
1.744482506182976e-05,-2.5580943656677846e-06
5.40106293556164e-06,-6.905025884407223e-08
3.7149363834032556e-06,-1.7551769815327134e-06
2.189393626395031e-06,9.74742306425469e-07
-1.0657286111381836e-05,5.71195550946868e-06
-1.2343412890913896e-05,5.069621238362743e-06
-1.3868956557416823e-05,5.631663498206763e-06
-1.2503996913437732e-05,5.14991324962466e-06
-1.1219328371225856e-05,6.535751140290813e-07
-7.76678371039452e-06,9.15328541850613e-08
-4.6354052756214514e-06,5.732840122618654e-07
-1.744902306199947e-06,-8.719680977264943e-07
4.4375624383974355e-06,-3.039845068997238e-06
6.846314590802649e-06,-5.850056368217338e-06
7.5689399636758026e-06,-2.5580943656677846e-06
1.3510530152416322e-05,-5.609181243926287e-06
1.4313448446046095e-05,-3.601887328841258e-06
1.214556959894253e-05,-3.099258378824743e-07
1.2787903870048467e-05,9.15328541850613e-08
3.7952283946651733e-06,5.390788373915711e-06
-7.927366823423654e-06,6.113414656283567e-06
-9.45291048992658e-06,8.040416105359327e-06
-1.3628081433125772e-05,9.806834896153305e-06
-1.4912749065842945e-05,4.909038125333609e-06
-1.6036834495025687e-05,2.982036221510498e-06
-1.0737578122643754e-05,1.1241300335029791e-08
,-1.1931347216886934e-06
,-6.090931492508389e-06
,-2.7989699447061867e-06
,-4.5653882807528134e-06
,-5.047138984082267e-06
,-3.601887328841258e-06
,-3.2004286367737222e-06
,-3.601887328841258e-06
,-3.923054464394227e-06
,-6.2515150602848735e-06
,-4.806263405043865e-06
,-6.310925186880922e-07
,4.748454102809774e-06
,4.02582872993662e-06
,5.9528306337597314e-06
,4.1864127524604555e-06
,1.536784566269489e-06
,2.0185348148515914e-06
,-1.032551153912209e-06
,-2.2369276848621666e-06
,-3.280720193288289e-06
-7.76678371039452e-06,-4.966846972820349e-06
-1.0222764785794425e-06,-2.959553512482671e-06
3.3937692478502868e-06,-3.2004286367737222e-06
4.196687314106384e-06,4.929920009999478e-07
6.364564342220547e-06,-1.032551153912209e-06
9.6565263447701e-06,2.419993961666478e-06
1.6240448530879803e-05,3.7046615943836514e-06
1.5357240044977516e-05,5.71195550946868e-06
1.134265312430216e-05,8.201000127883162e-06
6.284272330958629e-06,7.237499175971607e-06
-9.419849220648757e-07,6.434580882341834e-06
-3.83248789148638e-06,6.193705758050783e-06
-6.482115622929996e-06,2.5002859729283955e-06
-1.531420821265783e-05,9.74742306425469e-07
-2.117550502589438e-05,-1.5143018572416622e-06
-1.8044127500616014e-05,-5.528889232664369e-06
-1.708062700345181e-05,-1.835468992794631e-06
-7.365324563579634e-06,-2.3172192413767334e-06
-8.616929108029581e-07,-5.368305664887885e-06
4.9996046982414555e-06,-4.163929588685278e-06
8.130982678267173e-06,-2.397511252638651e-06
9.09448408492608e-06,-2.0763441170856822e-06
1.5276948033715598e-05,1.8579517018224578e-06
1.4474030649580527e-05,4.507578978518723e-06
1.3751406186202075e-05,4.02582872993662e-06
1.0459444638399873e-05,3.6243704926164355e-06
3.8755201785534155e-06,2.419993961666478e-06
-5.405262299973401e-07,6.535751140290813e-07
-6.160948487377027e-06,-3.099258378824743e-07
-1.2744872037728783e-05,-1.7551769815327134e-06
-1.3628081433125772e-05,
-1.764266926329583e-05,
-8.168241947714705e-06,
-6.8835743149975315e-06,
-1.0222764785794425e-06,
2.1516058268389315e-08,
6.766022579540731e-06,
1.6481324564665556e-05,
1.5196656931948382e-05,
1.1744111361622345e-05,
1.7043366824509576e-05,
1.0298860615876038e-05,
9.415650310984347e-06,
3.7952283946651733e-06,
-4.233946583553916e-06,
-1.3868956557416823e-05,
-1.5153624190133996e-05,
-1.4029539670445956e-05,
-1.7160919014713727e-05,
-1.2343412890913896e-05,
-7.927366823423654e-06,
-4.555113719106885e-06,-2.477802809153218e-06
2.6711438749771332e-06,-2.718677933444269e-06
5.5616469580854755e-06,-3.4413037610647734e-06
1.3510530152416322e-05,-5.850056368217338e-06
1.4554322660842445e-05,-6.171223503770307e-06
9.736818356032018e-06,-6.974140887905378e-06
8.853608051140327e-06,-2.7989699447061867e-06
8.050691576499958e-06,-3.3610122045502067e-06
1.4667672303403378e-06,-7.054432444419945e-06
-1.182860046355927e-06,-1.594593413756229e-06
-6.803282303735614e-06,5.732840122618654e-07
-1.7722961274557747e-05,3.865245616907487e-06
-1.3066039173281752e-05,8.040416105359327e-06
-1.4430997907766141e-05,7.558665402029874e-06
-1.3146330275048967e-05,5.069621238362743e-06
-1.2022245755360927e-05,5.471080385177629e-06
-6.722990747221047e-06,2.660869085957529e-06
-1.9054858739764313e-06,1.7182486544697895e-07
2.5105607619479997e-06,4.929920009999478e-07
1.2948487892572302e-05,1.2959094419784378e-06
1.158352733909851e-05,1.536784566269489e-06
1.2868195881310385e-05,-7.113845299500099e-07
2.105795283569023e-05,-2.718677933444269e-06
1.7926575310411863e-05,-7.916760864645767e-07
9.174776096187998e-06,-5.508009621735255e-07
-1.423735170646978e-06,-2.959553512482671e-06
-2.788694928312907e-06,7.33867125290999e-07
-4.0733630157774314e-06,8.201000127883162e-06
-1.2263120879651979e-05,5.069621238362743e-06
-1.756237725203391e-05,6.033122645021649e-06
-1.2744872037728783e-05,5.14991324962466e-06
-1.0095243851537816e-05,2.7411610972194467e-06
-9.292326467402745e-06,-3.842762453132309e-06
-5.679197784047574e-06,-2.959553512482671e-06
1.5470592416022555e-06,-5.508009621735255e-07
4.4375624383974355e-06,-1.273426732950611e-06
8.853608051140327e-06,-1.915760549309198e-06
1.4474030649580527e-05,-7.295307568710996e-06
1.6641906768199988e-05,-3.6821788853558246e-06
1.5999574316083454e-05,-4.324513156461762e-06
1.302877990383422e-05,-2.5580943656677846e-06
8.130982678267173e-06,1.1353254194546025e-06
2.189393626395031e-06,1.6170765775314067e-06
-1.8251943174618646e-06,5.631663498206763e-06
-1.1299620382487774e-05,8.281290320155676e-06
-1.5153624190133996e-05,8.763042387727182e-06
-1.8606169760460034e-05,4.748454102809774e-06
-1.3306914297572803e-05,4.266703854227671e-06
-1.0416410987090785e-05,-2.2963382662055665e-07
-4.233946583553916e-06,-1.9960521058237646e-06
-1.8251943174618646e-06,-1.5143018572416622e-06
,-1.5143018572416622e-06
,-2.959553512482671e-06
,-3.3610122045502067e-06
,-4.5653882807528134e-06
,-4.2442215999471955e-06
,-3.923054464394227e-06
,5.732840122618654e-07
,1.2156174307165202e-06
,4.1864127524604555e-06
,4.668163001042558e-06
,2.1791188373754267e-06
,3.4637864700926e-06
,2.2594099391426425e-06
,-3.2004286367737222e-06
,-7.215016012196429e-06
,-2.156635673600249e-06
,-2.2963382662055665e-07
,-1.9960521058237646e-06
,-1.5143018572416622e-06
,-4.966846972820349e-06
,-5.368305664887885e-06
,-3.3610122045502067e-06
,-2.3172192413767334e-06
,2.7411610972194467e-06
,3.4637864700926e-06
,2.8214521989866626e-06
,5.792247520730598e-06
,6.2739977693127e-06
,8.763042387727182e-06
,3.865245616907487e-06
,4.507578978518723e-06
,1.536784566269489e-06
,3.0623282327724155e-06
,5.732840122618654e-07
,-2.477802809153218e-06
,-2.8792615012207534e-06
,-5.368305664887885e-06
,-1.6748854250181466e-06
,-2.156635673600249e-06
,-8.719680977264943e-07
,2.8214521989866626e-06
,1.3762014532403555e-06
2.5105607619479997e-06,3.544078481354518e-06
3.2331861348211532e-06,3.1426193345396314e-06
1.0459444638399873e-05,4.909038125333609e-06
1.1422945135564078e-05,3.9455367186747026e-06
1.4072572412260342e-05,1.9382437130843755e-06
1.326965411863057e-05,1.1353254194546025e-06
8.211274689529091e-06,8.944502383201325e-07
2.2696847281622468e-06,-1.9960521058237646e-06
-8.168241947714705e-06,-7.916760864645767e-07
-1.2343412890913896e-05,
-1.3628081433125772e-05,
-1.475216504331911e-05,
-1.3708372534892987e-05,
-1.4671873941551894e-05,
-1.0255827874061652e-05,
-4.6354052756214514e-06,
3.3937692478502868e-06,
2.3499767394241644e-06,
1.1101777090516407e-05,
1.2225861610204447e-05,
1.326965411863057e-05,
1.80871593329357e-05,
1.5437532056239434e-05,
1.4634614672104362e-05,
8.050691576499958e-06,
3.6346452816360397e-06,
-6.803282303735614e-06,
-1.3868956557416823e-05,
-1.7722961274557747e-05,
-1.1861662642331794e-05,
-1.0817870133905672e-05,
-7.927366823423654e-06,
-5.277739091980038e-06,
3.4268319382135815e-07,
8.371858712052926e-06,
3.0726030217920197e-06,
9.817110367293935e-06,
1.7765991287888028e-05,
1.4634614672104362e-05,
9.817110367293935e-06,
7.167481726355618e-06,
3.1528941235592356e-06,
-7.76678371039452e-06,
-1.2423704902175814e-05,
-1.948937824636232e-05,
-1.820471152313985e-05,
-1.2343412890913896e-05,
-1.1299620382487774e-05,
-1.0336118975828867e-05,
-5.920073363085976e-06,
2.9120189992681844e-06,
6.043397206667578e-06,-4.725971848529298e-06
1.4233156434784178e-05,-6.492390184575925e-06
1.9532410078682005e-05,-5.528889232664369e-06
1.471490668336628e-05,-2.7989699447061867e-06
1.5598114259773865e-05,-6.090931492508389e-06
1.158352733909851e-05,-1.1931347216886934e-06
7.97039956523804e-06,-5.508009621735255e-07
7.441418574671843e-07,-3.52159531757934e-06
-2.1463608845806448e-06,-5.047138984082267e-06
-1.0095243851537816e-05,-5.508009621735255e-07
-1.539450022391975e-05,4.828746114071691e-06
-2.213900734204799e-05,1.2156174307165202e-06
-2.12557970371563e-05,3.1426193345396314e-06
-9.21203536563553e-06,1.3762014532403555e-06
-4.0733630157774314e-06,1.8579517018224578e-06
3.7149363834032556e-06,1.3762014532403555e-06
7.890107553976122e-06,-3.52159531757934e-06
1.1744111361622345e-05,-4.163929588685278e-06
1.0620026841934305e-05,-4.725971848529298e-06
1.5919282304821536e-05,-2.0763441170856822e-06
1.688278280198574e-05,-1.594593413756229e-06
1.4233156434784178e-05,-1.1931347216886934e-06
5.40106293556164e-06,-7.916760864645767e-07
6.52514745524968e-06,1.6973676792986225e-06
-8.616929108029581e-07,4.748454102809774e-06
-7.606200142618036e-06,5.9528306337597314e-06
-1.555508242745418e-05,8.441874342679512e-06
-1.6598876754869707e-05,5.390788373915711e-06
-1.1781370631069876e-05,2.5805770746956114e-06
-1.4430997907766141e-05,1.536784566269489e-06
-8.810576218820643e-06,5.732840122618654e-07
-5.1974475354654714e-06,3.324079784761125e-07
3.3937692478502868e-06,-3.842762453132309e-06
6.846314590802649e-06,-2.0763441170856822e-06
1.4233156434784178e-05,-3.601887328841258e-06
1.326965411863057e-05,-4.083638032170711e-06
1.2386445632728282e-05,-1.032551153912209e-06
1.158352733909851e-05,-6.310925186880922e-07
7.97039956523804e-06,-3.099258378824743e-07
8.612733836343978e-06,-1.273426732950611e-06
6.846314590802649e-06,7.33867125290999e-07
-2.1935906602266186e-07,3.784953605645569e-06
-8.971159331849776e-06,6.595164904865669e-06
-1.7160919014713727e-05,6.2739977693127e-06
-1.61171246872982e-05,4.58787098978064e-06
-1.708062700345181e-05,2.5805770746956114e-06
-1.0898161235672887e-05,1.2156174307165202e-06
-6.8835743149975315e-06,-1.032551153912209e-06
-2.996510772845795e-07,-1.273426732950611e-06
4.116395302844467e-06,-2.6383863769297022e-06
1.7076432641260908e-06,-3.9021739439704106e-07
1.1503237146825995e-05,-4.083638032170711e-06
1.2225861610204447e-05,-4.886555416305782e-06
1.415286442352226e-05,-7.937641385069583e-06
1.2386445632728282e-05,-4.2442215999471955e-06
9.736818356032018e-06,1.2156174307165202e-06
7.2477737376175355e-06,4.929920009999478e-07
4.196687314106384e-06,2.419993961666478e-06
-1.9054858739764313e-06,6.535751140290813e-07
-1.5153624190133996e-05,5.551372396439547e-06
-2.462805059622042e-05,4.909038125333609e-06
-2.294192381668836e-05,7.33867125290999e-07
-1.5153624190133996e-05,1.2156174307165202e-06
-1.0978453246934805e-05,2.660869085957529e-06
-4.474821707844967e-06,-4.0033460209087934e-06
-1.0222764785794425e-06,-1.0747852684289683e-05
8.612733836343978e-06,-8.098225407593418e-06
1.24667376439902e-05,-5.6894728004408535e-06
1.134265312430216e-05,-4.966846972820349e-06
1.6641906768199988e-05,-6.89384887664346e-06
1.7605409084353596e-05,-5.1274305405968335e-06
1.495578089816263e-05,-2.477802809153218e-06
1.0941194886981975e-05,2.982036221510498e-06
5.8828131841437425e-06,8.141591365529166e-07
-3.993071459262865e-06,5.390788373915711e-06
-8.168241947714705e-06,9.565958862367552e-06
-1.2022245755360927e-05,4.668163001042558e-06
-1.788354347809218e-05,5.310496362653794e-06
-1.475216504331911e-05,5.872538622497814e-06
-9.934660738508683e-06,2.1791188373754267e-06
-7.285033007065067e-06,3.6243704926164355e-06
-4.876280399912503e-06,5.732840122618654e-07
1.8209962604487373e-07,1.7182486544697895e-07
7.408356850646669e-06,-8.719680977264943e-07
6.4448554439877626e-06,-3.2004286367737222e-06
1.439373863831861e-05,-1.1931347216886934e-06
1.5437532056239434e-05,-4.2442215999471955e-06
1.6401032553403638e-05,-5.508009621735255e-07
1.021856860461412e-05,-6.905025884407223e-08
6.203980319696711e-06,-4.705089509116078e-07
1.14560054953472e-06,7.33867125290999e-07
-3.4310289720451692e-06,4.02582872993662e-06
-1.00149527497706e-05,4.427287876751507e-06
-2.1496673070942052e-05,8.120708116621245e-06
-1.6839750969666056e-05,6.535751140290813e-07
-1.2664580026466865e-05,3.784953605645569e-06
-8.810576218820643e-06,8.944502383201325e-07
-5.358031103241956e-06,-1.7551769815327134e-06
-5.877549824617745e-08,-7.3755995799729135e-06
9.047254252436687e-07,-2.3172192413767334e-06
5.320771833794424e-06,-6.89384887664346e-06
6.1236892179294955e-06,-3.923054464394227e-06
1.1182069101778325e-05,-2.477802809153218e-06
1.4795198694628198e-05,-5.1274305405968335e-06
2.0736786609631963e-05,-3.6821788853558246e-06
1.0298860615876038e-05,-3.280720193288289e-06
3.2331861348211532e-06,-1.273426732950611e-06
-3.270445404268685e-06,1.2156174307165202e-06
-6.722990747221047e-06,4.909038125333609e-06
-1.4109831681707874e-05,9.405374839843716e-06
-2.6715637432062067e-05,7.63895695854444e-06
-2.157696508220397e-05,4.989330136595527e-06
-1.3788664546154905e-05,5.471080385177629e-06
-9.613493602955714e-06,1.4564925550075714e-06
-5.405262299973401e-07,-5.609181243926287e-06
5.835582896906999e-07,-6.572682195837842e-06
1.6273512528641731e-06,-3.923054464394227e-06
6.4448554439877626e-06,-1.5143018572416622e-06
1.439373863831861e-05,-2.2369276848621666e-06
1.5437532056239434e-05,-1.594593413756229e-06
1.8328033547732048e-05,-1.032551153912209e-06
1.5678406271035783e-05,-5.508009621735255e-07
8.452149813820142e-06,4.909038125333609e-06
1.7076432641260908e-06,4.1864127524604555e-06
-4.474821707844967e-06,3.544078481354518e-06
-5.277739091980038e-06,1.7776596905605402e-06
-1.0336118975828867e-05,8.843332579999696e-06
-1.3628081433125772e-05,5.9528306337597314e-06
-1.6598876754869707e-05,3.3032033570634667e-06
-1.2905455150757916e-05,8.944502383201325e-07
-8.409117072005756e-06,-2.718677933444269e-06
-6.208177865119069e-07,1.8579517018224578e-06
2.5105607619479997e-06,9.15328541850613e-08
3.4740612591122044e-06,-1.4340103007270955e-06
7.890107553976122e-06,-1.915760549309198e-06
1.5116364920686465e-05,-2.3172192413767334e-06
1.6079864508355968e-05,-6.8135573201288935e-06
1.3430238141154405e-05,-3.842762453132309e-06
1.2627321666514035e-05,-1.4934227010598988e-07
4.598145551426569e-06,1.2959094419784378e-06
1.4667672303403378e-06,4.346995865489589e-06
-5.277739091980038e-06,4.748454102809774e-06
-9.693785614217632e-06,2.982036221510498e-06
-1.531420821265783e-05,7.39808228900074e-06
-1.6036834495025687e-05,5.631663498206763e-06
-1.7963835489354096e-05,5.14991324962466e-06
-1.1379912393749692e-05,1.6973676792986225e-06
-3.4310289720451692e-06,-4.705089509116078e-07
3.955811280320631e-06,-3.280720193288289e-06
4.919312686979538e-06,-2.959553512482671e-06
7.5689399636758026e-06,-6.010639935993822e-06
1.6401032553403638e-05,-8.0179333963315e-06
1.5276948033715598e-05,-3.280720193288289e-06
,-8.258808520622551e-06
,-4.966846972820349e-06
,-7.916760864645767e-07
,-1.273426732950611e-06
,1.2156174307165202e-06
,1.6170765775314067e-06
,5.310496362653794e-06
,3.865245616907487e-06
,-1.915760549309198e-06
,-4.324513156461762e-06
,2.2594099391426425e-06
,-3.9021739439704106e-07
,2.0185348148515914e-06
,-1.4934227010598988e-07
,-7.916760864645767e-07
,-1.3537182894651778e-06
,1.7182486544697895e-07
,-1.273426732950611e-06
1.214556959894253e-05,8.944502383201325e-07
1.3189363926358055e-05,-2.7989699447061867e-06
8.371858712052926e-06,3.7046615943836514e-06
3.955811280320631e-06,2.8214521989866626e-06
-3.270445404268685e-06,6.83604002915672e-06
-1.00149527497706e-05,7.558665402029874e-06
-1.0898161235672887e-05,4.266703854227671e-06
-1.651858474360779e-05,4.828746114071691e-06
-1.4350706805998925e-05,1.1353254194546025e-06
-9.77407762547955e-06,-1.3537182894651778e-06
-5.598906227533007e-06,-1.7551769815327134e-06
-7.124449439288583e-06,-1.3537182894651778e-06
-8.569701094529592e-06,-2.397511252638651e-06
-5.51861467101844e-06,-5.448597676149802e-06
5.835582896906999e-07,-2.6383863769297022e-06
1.383169637847459e-05,-5.1274305405968335e-06
1.1984987395408098e-05,-4.163929588685278e-06
1.7123658835771494e-05,3.324079784761125e-07
1.5598114259773865e-05,9.74742306425469e-07
8.53244182508206e-06,-7.916760864645767e-07
9.817110367293935e-06,7.317790277738823e-06
1.6273512528641731e-06,6.193705758050783e-06
-5.7594897953094915e-06,5.14991324962466e-06
-1.2503996913437732e-05,4.1864127524604555e-06
-1.868646177172195e-05,1.536784566269489e-06
-1.6277708709822036e-05,2.33970195040456e-06
-1.2664580026466865e-05,1.6170765775314067e-06
-5.438322659756523e-06,-1.6748854250181466e-06
-6.208177865119069e-07,-4.645680292014731e-06
7.328064839384751e-06,-1.9960521058237646e-06
8.371858712052926e-06,-5.448597676149802e-06
7.408356850646669e-06,-6.733265308866976e-06
1.359082216367824e-05,-7.134724455681862e-06
1.2787903870048467e-05,
1.2065279406670015e-05,
1.270761185878655e-05,
1.214556959894253e-05,
4.036103291582549e-06,
-1.8251943174618646e-06,
-1.1460203495516907e-05,
-1.531420821265783e-05,
-1.876675378298387e-05,
-1.7722961274557747e-05,
-8.971159331849776e-06,
-3.109862063865876e-06,
-2.066069328066078e-06,
4.678437562688487e-06,
5.5616469580854755e-06,
9.576234333508182e-06,
1.3189363926358055e-05,
1.2547029655252118e-05,
1.471490668336628e-05,-1.835468992794631e-06
1.0539734830672387e-05,-6.572682195837842e-06
4.598145551426569e-06,-1.9960521058237646e-06
-2.628111587910098e-06,-1.4340103007270955e-06
-9.372618478664663e-06,9.15328541850613e-08
-1.732150121824816e-05,4.58787098978064e-06
-2.045288056251593e-05,5.14991324962466e-06
-1.756237725203391e-05,2.521168767088966e-07
-1.3146330275048967e-05,-5.6894728004408535e-06
-7.525908131356118e-06,-1.6748854250181466e-06
-6.803282303735614e-06,4.929920009999478e-07
-6.160948487377027e-06,-2.7989699447061867e-06
-6.722990747221047e-06,-2.2369276848621666e-06
1.386476128573122e-06,-2.718677933444269e-06
1.1984987395408098e-05,-4.163929588685278e-06
1.3349946129892487e-05,-2.8792615012207534e-06
1.9853578123729676e-05,-2.477802809153218e-06
1.1663819350360427e-05,-2.156635673600249e-06
1.0620026841934305e-05,2.90174421024858e-06
5.802522082376527e-06,3.6243704926164355e-06
1.386476128573122e-06,2.982036221510498e-06
-7.4456165748415515e-06,1.2156174307165202e-06
-1.56353744387161e-05,6.113414656283567e-06
-1.876675378298387e-05,6.755748017894803e-06
-1.2022245755360927e-05,4.989330136595527e-06
-1.1139036359963939e-05,3.4637864700926e-06
-3.912779448000947e-06,2.0185348148515914e-06
9.047254252436687e-07,-1.4934227010598988e-07
3.554353270374122e-06,-5.508009621735255e-07
1.14560054953472e-06,4.929920009999478e-07
1.0620026841934305e-05,-3.923054464394227e-06
1.4474030649580527e-05,-3.3610122045502067e-06
1.3349946129892487e-05,-2.8792615012207534e-06
1.439373863831861e-05,-4.324513156461762e-06
1.1503237146825995e-05,-4.725971848529298e-06
7.0871897150937e-06,1.3762014532403555e-06
4.678437562688487e-06,4.929920009999478e-07
-3.350737188156927e-06,-3.099258378824743e-07
-8.649993105791509e-06,1.8579517018224578e-06
-1.3467497410601936e-05,3.784953605645569e-06
-1.788354347809218e-05,5.551372396439547e-06
-1.3868956557416823e-05,6.033122645021649e-06
-1.3146330275048967e-05,3.544078481354518e-06
-5.920073363085976e-06,1.3762014532403555e-06
-6.8835743149975315e-06,1.7182486544697895e-07
1.0653089930201531e-06,-1.4934227010598988e-07
1.2787903870048467e-05,-1.1128431651741266e-06
1.4313448446046095e-05,-2.5580943656677846e-06
1.0138276593352202e-05,-1.7551769815327134e-06
1.3992280400998425e-05,-4.966846972820349e-06
1.744482506182976e-05,-9.522596542410611e-07
9.897402378555853e-06,9.15328541850613e-08
6.766022579540731e-06,1.6170765775314067e-06
2.1516058268389315e-08,-1.835468992794631e-06
-7.927366823423654e-06,1.2156174307165202e-06
-1.531420821265783e-05,4.02582872993662e-06
-1.6277708709822036e-05,2.2594099391426425e-06
-1.3628081433125772e-05,5.9528306337597314e-06
-1.2825163139495999e-05,3.4637864700926e-06
-7.76678371039452e-06,-3.2004286367737222e-06
-5.839781351824058e-06,-6.090931492508389e-06
-4.6023419031371304e-07,-3.4413037610647734e-06
6.1236892179294955e-06,-4.2442215999471955e-06
8.773316949373111e-06,-6.310925186880922e-07
1.1182069101778325e-05,-2.5580943656677846e-06
1.190469538414618e-05,2.8214521989866626e-06
1.5196656931948382e-05,6.535751140290813e-07
1.2225861610204447e-05,-1.273426732950611e-06
8.53244182508206e-06,2.90174421024858e-06
2.0288096038711956e-06,4.427287876751507e-06
-5.920073363085976e-06,6.916332040418638e-06
-1.3306914297572803e-05,6.5148728936037514e-06
-1.2343412890913896e-05,6.113414656283567e-06
-1.675945895840414e-05,7.157207164709689e-06
-1.2744872037728783e-05,4.106120741198538e-06
-1.2022245755360927e-05,4.126999897380301e-07
-7.4456165748415515e-06,2.90174421024858e-06
-2.066069328066078e-06,-1.4934227010598988e-07
2.992311010530102e-06,-2.959553512482671e-06
3.6346452816360397e-06,-4.725971848529298e-06
1.1422945135564078e-05,-7.777058272040449e-06
1.6722198779461905e-05,-6.572682195837842e-06
1.57586982822977e-05,-3.280720193288289e-06
1.6641906768199988e-05,-2.8792615012207534e-06
9.415650310984347e-06,-8.719680977264943e-07
8.452149813820142e-06,-1.915760549309198e-06
5.802522082376527e-06,-1.594593413756229e-06
-1.423735170646978e-06,2.90174421024858e-06
-6.241240043891594e-06,3.544078481354518e-06
-1.419012278347509e-05,1.7776596905605402e-06
-1.732150121824816e-05,1.2959094419784378e-06
-1.6358000721083954e-05,4.748454102809774e-06
-8.409117072005756e-06,-1.4934227010598988e-07
-7.365324563579634e-06,4.929920009999478e-07
-6.208177865119069e-07,-1.273426732950611e-06
2.0288096038711956e-06,-1.7551769815327134e-06
6.043397206667578e-06,-5.207722551858751e-06
1.5517822248511948e-05,-4.806263405043865e-06
1.4233156434784178e-05,-5.207722551858751e-06
1.5357240044977516e-05,-3.4413037610647734e-06
1.6401032553403638e-05,-4.404804712976329e-06
1.3510530152416322e-05,-2.959553512482671e-06
5.079895800008671e-06,-3.1201366255118046e-06
2.430268750686082e-06,1.0550343176873866e-06
-6.401823611668078e-06,6.434580882341834e-06
-1.2263120879651979e-05,4.266703854227671e-06
-1.756237725203391e-05,3.6243704926164355e-06
-1.4671873941551894e-05,4.1864127524604555e-06
-1.2022245755360927e-05,1.536784566269489e-06
-9.613493602955714e-06,-2.959553512482671e-06
-4.555113719106885e-06,-8.339100531884469e-06
-2.628111587910098e-06,-3.280720193288289e-06
1.5470592416022555e-06,-2.6383863769297022e-06
2.0288096038711956e-06,3.324079784761125e-07
2.5105607619479997e-06,-3.3610122045502067e-06
8.291566700791009e-06,-4.806263405043865e-06
1.0700318853196222e-05,-3.52159531757934e-06
1.1422945135564078e-05,1.7182486544697895e-07
5.481354946823558e-06,-1.273426732950611e-06
4.678437562688487e-06,2.7411610972194467e-06
2.5105607619479997e-06,3.222911345801549e-06
-4.715696832136018e-06,4.668163001042558e-06
-1.3467497410601936e-05,8.682750376465265e-06
-1.932879604282789e-05,6.033122645021649e-06
-1.4029539670445956e-05,2.5805770746956114e-06
-1.1139036359963939e-05,4.748454102809774e-06
-4.95657241117442e-06,1.9382437130843755e-06
6.638503009526175e-07,8.944502383201325e-07
-5.877549824617745e-08,-6.905025884407223e-08
5.8828131841437425e-06,-8.719680977264943e-07
1.1503237146825995e-05,-1.1128431651741266e-06
1.5116364920686465e-05,-4.806263405043865e-06
1.3189363926358055e-05,-3.280720193288289e-06
1.495578089816263e-05,-2.7989699447061867e-06
1.3430238141154405e-05,-6.310925186880922e-07
5.96310519540566e-06,5.732840122618654e-07
-1.423735170646978e-06,8.944502383201325e-07
-4.314238140068483e-06,1.8579517018224578e-06
-1.0496702998352703e-05,3.865245616907487e-06
-1.4511289919028059e-05,8.040416105359327e-06
-1.3788664546154905e-05,5.069621238362743e-06
-1.708062700345181e-05,6.595164904865669e-06
-9.292326467402745e-06,4.106120741198538e-06
-8.248533958976623e-06,-2.5580943656677846e-06
-7.285033007065067e-06,-1.594593413756229e-06
4.196687314106384e-06,-4.2442215999471955e-06
8.853608051140327e-06,-3.4413037610647734e-06
1.302877990383422e-05,-4.163929588685278e-06
1.4313448446046095e-05,-4.806263405043865e-06
1.7765991287888028e-05,-4.2442215999471955e-06
1.4634614672104362e-05,-2.718677933444269e-06
9.817110367293935e-06,-1.273426732950611e-06
3.6346452816360397e-06,1.1241300335029791e-08
2.623911825594405e-07,5.551372396439547e-06
-3.7521958802244626e-06,4.346995865489589e-06
-1.0336118975828867e-05,4.668163001042558e-06
-1.2985747162019834e-05,3.7046615943836514e-06
-1.057699500961462e-05,5.14991324962466e-06
-9.854368727246765e-06,2.098826826113509e-06
-1.2631520576178445e-06,3.3032033570634667e-06
-2.387236008871696e-06,8.141591365529166e-07
2.9120189992681844e-06,-4.2442215999471955e-06
1.9485185021039797e-06,-6.412098628061358e-06
9.897402378555853e-06,-7.054432444419945e-06
8.853608051140327e-06,-5.288014108373318e-06
1.5598114259773865e-05,-2.6383863769297022e-06
1.6481324564665556e-05,-1.1931347216886934e-06
1.5678406271035783e-05,9.74742306425469e-07
4.758729573950404e-06,-2.2963382662055665e-07
-1.2503996913437732e-05,3.784953605645569e-06
-5.679197784047574e-06,2.2594099391426425e-06
-1.1941954653593712e-05,4.748454102809774e-06
-1.756237725203391e-05,6.033122645021649e-06
-1.587625047250185e-05,5.631663498206763e-06
-1.4350706805998925e-05,4.58787098978064e-06
-1.0175535862799734e-05,2.2594099391426425e-06
-6.3215320551535115e-06,1.4564925550075714e-06
1.8682263771552243e-06,-1.032551153912209e-06
2.9120189992681844e-06,-4.083638032170711e-06
3.8755201785534155e-06,-6.090931492508389e-06
8.291566700791009e-06,-2.7989699447061867e-06
1.3911988389736507e-05,-5.850056368217338e-06
2.049591057584621e-05,-7.857350283302367e-06
1.9612702089943923e-05,-3.842762453132309e-06
9.174776096187998e-06,-2.3172192413767334e-06
7.809816452208906e-06,2.1791188373754267e-06
3.955811280320631e-06,3.9455367186747026e-06
-8.971159331849776e-06,4.427287876751507e-06
-1.0657286111381836e-05,-6.905025884407223e-08
-1.531420821265783e-05,4.106120741198538e-06
-1.667916694714222e-05,6.755748017894803e-06
-1.539450022391975e-05,3.3032033570634667e-06
-4.795988843397936e-06,-1.594593413756229e-06
-6.160948487377027e-06,-9.522596542410611e-07
-7.4456165748415515e-06,-2.718677933444269e-06
3.1528941235592356e-06,-4.2442215999471955e-06
4.517853540164651e-06,-1.7551769815327134e-06
8.371858712052926e-06,-1.3537182894651778e-06
1.4233156434784178e-05,-3.3610122045502067e-06
1.3189363926358055e-05,-6.905025884407223e-08
1.2225861610204447e-05,3.324079784761125e-07
7.809816452208906e-06,4.02582872993662e-06
7.0068977038317826e-06,-4.705089509116078e-07
4.83902067571762e-06,2.5002859729283955e-06
-4.555113719106885e-06,
-1.1781370631069876e-05,
-1.8525877749198116e-05,
-1.587625047250185e-05,
-1.3467497410601936e-05,
-1.56353744387161e-05,
-8.409117072005756e-06,
-1.6646107496853801e-06,
4.517853540164651e-06,
8.53244182508206e-06,
1.214556959894253e-05,
1.4072572412260342e-05,
1.4634614672104362e-05,
1.7284241039305925e-05,
9.817110367293935e-06,
4.517853540164651e-06,
-2.996510772845795e-07,
-8.248533958976623e-06,
-1.56353744387161e-05,
-1.4671873941551894e-05,
-1.555508242745418e-05,
-1.3146330275048967e-05,
-5.117155524203554e-06,
-8.248533958976623e-06,
-9.21203536563553e-06,
5.032667331761331e-07,
7.0068977038317826e-06,
5.8828131841437425e-06,
4.83902067571762e-06,
1.158352733909851e-05,
1.0700318853196222e-05,
5.079895800008671e-06,
5.802522082376527e-06,
1.2258921060492867e-06,
-5.358031103241956e-06,
-1.3306914297572803e-05,
-1.4350706805998925e-05,
-1.3387205399340019e-05,
-7.204740995803149e-06,
-1.5843187384234625e-06,
-8.616929108029581e-07,
2.430268750686082e-06,
7.809816452208906e-06,
1.2868195881310385e-05,
1.6160156519617885e-05,
1.6722198779461905e-05,
1.6240448530879803e-05,
1.3751406186202075e-05,
7.97039956523804e-06,
7.441418574671843e-07,
-4.0733630157774314e-06,
,7.33867125290999e-07
,4.427287876751507e-06
,8.923624591261614e-06
,1.1353254194546025e-06
,2.1791188373754267e-06
,1.2156174307165202e-06
,-1.4340103007270955e-06
,-5.448597676149802e-06
,-3.280720193288289e-06
,-3.923054464394227e-06
,-3.3610122045502067e-06
,-1.835468992794631e-06
,-2.3172192413767334e-06
,-4.485096724238247e-06
,-7.916760864645767e-07
,1.6973676792986225e-06
,2.982036221510498e-06
,4.989330136595527e-06
,5.310496362653794e-06
,7.63895695854444e-06
,5.631663498206763e-06
,2.0185348148515914e-06
,1.536784566269489e-06
,-3.3610122045502067e-06
,-1.0587269571260549e-05
,-7.696766260778531e-06
,-6.8135573201288935e-06
,4.126999897380301e-07
,-2.477802809153218e-06
,-5.1274305405968335e-06
,-1.1128431651741266e-06
,-3.9021739439704106e-07
,1.536784566269489e-06
,4.507578978518723e-06
,6.033122645021649e-06
,2.5805770746956114e-06
,-4.083638032170711e-06
,7.33867125290999e-07
,1.6170765775314067e-06
,8.141591365529166e-07
,-1.3537182894651778e-06
,-1.9960521058237646e-06
,-2.5580943656677846e-06
,-4.083638032170711e-06
,-4.5653882807528134e-06
,-1.5143018572416622e-06
,-1.1128431651741266e-06
,3.6243704926164355e-06
,4.266703854227671e-06
,4.828746114071691e-06
,5.310496362653794e-06
-7.124449439288583e-06,6.83604002915672e-06
-1.5073332178872079e-05,9.325084647571202e-06
-1.4029539670445956e-05,2.660869085957529e-06
-1.3066039173281752e-05,1.6973676792986225e-06
-6.8835743149975315e-06,2.5805770746956114e-06
-7.686491699132603e-06,1.7182486544697895e-07
-1.1025684898413601e-06,2.33970195040456e-06
-2.1935906602266186e-07,-9.522596542410611e-07
5.835582896906999e-07,-5.1274305405968335e-06
5.641938059852691e-06,-1.4340103007270955e-06
1.2868195881310385e-05,-3.923054464394227e-06
1.383169637847459e-05,-6.974140887905378e-06
1.2948487892572302e-05,-4.966846972820349e-06
1.0539734830672387e-05,-2.2963382662055665e-07
3.955811280320631e-06,-3.52159531757934e-06
-4.6023419031371304e-07,6.535751140290813e-07
-6.08065693086246e-06,-1.9960521058237646e-06
-9.693785614217632e-06,2.5002859729283955e-06
-1.56353744387161e-05,5.471080385177629e-06
-1.00149527497706e-05,4.989330136595527e-06
-9.292326467402745e-06,3.544078481354518e-06
-9.934660738508683e-06,4.828746114071691e-06
-3.350737188156927e-06,1.1353254194546025e-06
1.0653089930201531e-06,-1.3537182894651778e-06
3.4740612591122044e-06,-6.2515150602848735e-06
1.1503237146825995e-05,-4.324513156461762e-06
1.4634614672104362e-05,-4.886555416305782e-06
1.752511707309168e-05,1.0550343176873866e-06
1.4875490705890115e-05,-2.959553512482671e-06
1.24667376439902e-05,-7.916760864645767e-07
1.1744111361622345e-05,2.5002859729283955e-06
1.8682263771552243e-06,4.266703854227671e-06
-2.306944452357129e-06,2.7411610972194467e-06
-6.160948487377027e-06,5.230205260886578e-06
-1.675945895840414e-05,6.5148728936037514e-06
-1.2584288015204947e-05,2.8214521989866626e-06
-1.1299620382487774e-05,4.266703854227671e-06
-1.0175535862799734e-05,2.521168767088966e-07
-9.131743354373612e-06,7.33867125290999e-07
-4.314238140068483e-06,-7.113845299500099e-07
1.8682263771552243e-06,-3.7624708966177423e-06
9.09448408492608e-06,-1.7551769815327134e-06
1.0057984582090285e-05,1.1241300335029791e-08
1.270761185878655e-05,-9.522596542410611e-07
8.693024938111193e-06,-4.2442215999471955e-06
1.5276948033715598e-05,-3.842762453132309e-06
5.5616469580854755e-06,2.2594099391426425e-06
4.2769784158736e-06,-3.9021739439704106e-07
8.244334139817511e-07,4.126999897380301e-07
-6.562407179444563e-06,2.5805770746956114e-06
-1.531420821265783e-05,5.872538622497814e-06
,4.909038125333609e-06
,4.346995865489589e-06
,1.6973676792986225e-06
,-7.916760864645767e-07
,4.929920009999478e-07
,-4.806263405043865e-06
,-5.528889232664369e-06
,-6.171223503770307e-06
,-5.609181243926287e-06
,-6.090931492508389e-06
,-5.609181243926287e-06
,-7.113845299500099e-07
,-6.905025884407223e-08
,-4.2442215999471955e-06
,-7.937641385069583e-06
-1.3226622286310885e-05,-4.705089509116078e-07
-1.4350706805998925e-05,4.828746114071691e-06
-1.3306914297572803e-05,5.792247520730598e-06
-1.2343412890913896e-05,-3.9021739439704106e-07
-6.160948487377027e-06,6.83604002915672e-06
1.0653089930201531e-06,-1.915760549309198e-06
3.955811280320631e-06,1.536784566269489e-06
1.3671114174940158e-05,2.5805770746956114e-06
7.167481726355618e-06,3.544078481354518e-06
3.7149363834032556e-06,-2.6383863769297022e-06
9.014192073664162e-06,-5.047138984082267e-06
9.977692570828367e-06,-4.324513156461762e-06
9.09448408492608e-06,-3.6821788853558246e-06
6.6857314777735155e-06,-7.113845299500099e-07
3.0726030217920197e-06,8.141591365529166e-07
-2.868986712201149e-06,3.324079784761125e-07
-1.0095243851537816e-05,-6.905025884407223e-08
-1.4912749065842945e-05,2.7411610972194467e-06
-1.4029539670445956e-05,7.478374300262658e-06
-1.00149527497706e-05,8.120708116621245e-06
-6.401823611668078e-06,6.354289780574618e-06
-3.109862063865876e-06,2.660869085957529e-06
-1.390675095080951e-07,-7.916760864645767e-07
1.386476128573122e-06,4.929920009999478e-07
8.853608051140327e-06,-2.3172192413767334e-06
1.415286442352226e-05,1.7182486544697895e-07
2.08973706321558e-05,-2.8792615012207534e-06
1.824774153647013e-05,-6.572682195837842e-06
1.2627321666514035e-05,-4.083638032170711e-06
1.190469538414618e-05,-1.915760549309198e-06
4.678437562688487e-06,-1.5143018572416622e-06
-6.000364919600543e-06,-4.0033460209087934e-06
-1.3066039173281752e-05,4.126999897380301e-07
-1.6920042980927974e-05,4.58787098978064e-06
-1.3467497410601936e-05,4.106120741198538e-06
-1.2423704902175814e-05,5.551372396439547e-06
-9.533201591693796e-06,
-1.2182829777884763e-05,
-4.95657241117442e-06,
-1.390675095080951e-07,
4.2769784158736e-06,
9.897402378555853e-06,
1.2065279406670015e-05,
1.270761185878655e-05,
1.326965411863057e-05,
9.576234333508182e-06,
7.0871897150937e-06,
4.229747503359249e-07,
-6.3215320551535115e-06,
-1.6036834495025687e-05,
-1.475216504331911e-05,
-1.61171246872982e-05,2.33970195040456e-06
-1.4993040167610161e-05,1.0550343176873866e-06
-7.606200142618036e-06,-9.522596542410611e-07
-4.715696832136018e-06,-6.310925186880922e-07
-3.83248789148638e-06,3.324079784761125e-07
-1.423735170646978e-06,-4.163929588685278e-06
5.160187811270589e-06,-8.719680977264943e-07
1.4875490705890115e-05,-6.2515150602848735e-06
1.359082216367824e-05,-1.1309894944133703e-05
1.24667376439902e-05,-9.382893040310591e-06
1.1422945135564078e-05,-4.0033460209087934e-06
7.441418574671843e-07,-1.835468992794631e-06
-6.208177865119069e-07,1.4564925550075714e-06
-1.9054858739764313e-06,5.631663498206763e-06
-7.76678371039452e-06,4.106120741198538e-06
-1.0898161235672887e-05,7.558665402029874e-06
-1.3788664546154905e-05,7.157207164709689e-06
-1.4671873941551894e-05,8.361582331417594e-06
-9.051451343111694e-06,3.6243704926164355e-06
-3.993071459262865e-06,1.6973676792986225e-06
5.835582896906999e-07,2.2594099391426425e-06
-2.387236008871696e-06,7.33867125290999e-07
3.554353270374122e-06,-7.113845299500099e-07
5.96310519540566e-06,-5.609181243926287e-06
1.102148507925449e-05,-1.032551153912209e-06
1.4313448446046095e-05,-6.412098628061358e-06
1.8488617570255883e-05,-2.7989699447061867e-06
1.359082216367824e-05,-8.719680977264943e-07
1.0298860615876038e-05,2.098826826113509e-06
2.5105607619479997e-06,4.748454102809774e-06
-6.208177865119069e-07,3.3032033570634667e-06
-9.372618478664663e-06,4.58787098978064e-06
-1.5233915291901212e-05,7.39808228900074e-06
-1.6277708709822036e-05,3.3834944588306826e-06
-1.3387205399340019e-05,3.865245616907487e-06
-7.204740995803149e-06,-1.594593413756229e-06
-3.1901536203804426e-06,5.732840122618654e-07
-1.0222764785794425e-06,-1.3537182894651778e-06
6.203980319696711e-06,-7.916760864645767e-07
9.09448408492608e-06,-3.099258378824743e-07
1.1744111361622345e-05,-6.8135573201288935e-06
1.2547029655252118e-05,-2.397511252638651e-06
1.471490668336628e-05,-4.806263405043865e-06
1.2787903870048467e-05,-2.6383863769297022e-06
7.408356850646669e-06,6.535751140290813e-07
3.7952283946651733e-06,3.6243704926164355e-06
-7.814013542883913e-07,3.1426193345396314e-06
-7.365324563579634e-06,6.595164904865669e-06
-1.1781370631069876e-05,1.6973676792986225e-06
-1.900762799778022e-05,6.2739977693127e-06
-1.8044127500616014e-05,3.3032033570634667e-06
,2.0185348148515914e-06
,3.544078481354518e-06
,4.02582872993662e-06
,-1.7551769815327134e-06
,-5.76976435695542e-06
,-3.601887328841258e-06
,-8.178517418855336e-06
,-6.412098628061358e-06
,-7.937641385069583e-06
,-3.4413037610647734e-06
,-4.705089509116078e-07
,2.1791188373754267e-06
,-1.273426732950611e-06
,1.1241300335029791e-08
,-3.9021739439704106e-07
,2.90174421024858e-06
,-1.4934227010598988e-07
,1.0550343176873866e-06
,2.098826826113509e-06
,4.126999897380301e-07
,-3.9021739439704106e-07
,-6.310925186880922e-07
,-4.324513156461762e-06
,-3.842762453132309e-06
,-1.3537182894651778e-06
,-2.6383863769297022e-06
,-1.4340103007270955e-06
-1.4511289919028059e-05,3.3032033570634667e-06
-1.0095243851537816e-05,3.9455367186747026e-06
-6.08065693086246e-06,8.120708116621245e-06
-2.4675280201336136e-06,4.427287876751507e-06
8.244334139817511e-07,7.879832082835492e-06
9.817110367293935e-06,6.595164904865669e-06
1.3671114174940158e-05,4.929920009999478e-07
1.2547029655252118e-05,-3.9021739439704106e-07
7.2477737376175355e-06,2.0185348148515914e-06
6.284272330958629e-06,-1.594593413756229e-06
1.0700318853196222e-05,-9.522596542410611e-07
5.079895800008671e-06,-3.923054464394227e-06
1.4667672303403378e-06,-5.448597676149802e-06
-5.7594897953094915e-06,-4.966846972820349e-06
-1.643829273234587e-05,-3.6821788853558246e-06
-1.5073332178872079e-05,-2.477802809153218e-06
-1.3788664546154905e-05,-2.156635673600249e-06
-1.0336118975828867e-05,8.944502383201325e-07
-2.9492784960893914e-06,2.90174421024858e-06
-5.839781351824058e-06,-3.9021739439704106e-07
3.4268319382135815e-07,4.507578978518723e-06
7.5689399636758026e-06,5.14991324962466e-06
1.4313448446046095e-05,3.3834944588306826e-06
1.5196656931948382e-05,1.8579517018224578e-06
1.5999574316083454e-05,
1.9612702089943923e-05,
1.3671114174940158e-05,
9.6565263447701e-06,
1.6273512528641731e-06,
-3.6719040963362204e-06,
-8.489409083267674e-06,
-1.4671873941551894e-05,
-1.3868956557416823e-05,
-1.3146330275048967e-05,
-1.1219328371225856e-05,
-7.044157882774016e-06,
-2.1463608845806448e-06,
-1.5040271819088957e-06,
2.6711438749771332e-06,
9.736818356032018e-06,
8.773316949373111e-06,
1.3189363926358055e-05,
1.078061086445814e-05,
1.0057984582090285e-05,
5.481354946823558e-06,
3.7149363834032556e-06,
-4.3945301513304e-06,
-1.2584288015204947e-05,
-1.5715666449978016e-05,
-1.475216504331911e-05,
-1.9168212020304054e-05,
-1.2905455150757916e-05,-5.508009621735255e-07
-7.285033007065067e-06,-6.905025884407223e-08
-7.011097977738245e-07,-4.083638032170711e-06
3.7149363834032556e-06,-3.601887328841258e-06
2.9120189992681844e-06,-1.1128431651741266e-06
1.383169637847459e-05,-2.397511252638651e-06
1.2306153621466365e-05,-3.9021739439704106e-07
1.937182605615817e-05,-7.113845299500099e-07
1.2868195881310385e-05,-4.404804712976329e-06
4.678437562688487e-06,-2.959553512482671e-06
1.5470592416022555e-06,-7.916760864645767e-07
-3.270445404268685e-06,3.7046615943836514e-06
-5.920073363085976e-06,4.266703854227671e-06
-1.6358000721083954e-05,4.748454102809774e-06
-2.9204680686234497e-05,-2.718677933444269e-06
-2.061346276605036e-05,4.126999897380301e-07
-1.595654248376377e-05,-5.508009621735255e-07
-6.08065693086246e-06,-3.2004286367737222e-06
-4.795988843397936e-06,-7.215016012196429e-06
1.0653089930201531e-06,-2.156635673600249e-06
2.1091016151331132e-06,-1.5143018572416622e-06
4.9996046982414555e-06,2.521168767088966e-07
1.471490668336628e-05,-3.4413037610647734e-06
1.85689095815178e-05,-1.9960521058237646e-06
1.5116364920686465e-05,-2.397511252638651e-06
1.4072572412260342e-05,2.098826826113509e-06
9.255068107449915e-06,5.069621238362743e-06
4.83902067571762e-06,1.7182486544697895e-07
4.036103291582549e-06,2.098826826113509e-06
-6.8835743149975315e-06,8.682750376465265e-06
-1.1540495506778825e-05,1.133237765316153e-05
-1.2905455150757916e-05,7.317790277738823e-06
-9.051451343111694e-06,5.14991324962466e-06
-7.927366823423654e-06,5.792247520730598e-06
-6.8835743149975315e-06,1.6170765775314067e-06
1.8682263771552243e-06,-1.032551153912209e-06
7.729524440946989e-06,-5.508009621735255e-07
8.773316949373111e-06,-1.4934227010598988e-07
1.1663819350360427e-05,-3.842762453132309e-06
1.7846283299149945e-05,-3.3610122045502067e-06
1.5437532056239434e-05,-2.0763441170856822e-06
1.1824403372884262e-05,-4.886555416305782e-06
9.897402378555853e-06,5.732840122618654e-07
5.722230071114609e-06,2.982036221510498e-06
2.0288096038711956e-06,2.2594099391426425e-06
-5.438322659756523e-06,4.1864127524604555e-06
-1.2825163139495999e-05,5.9528306337597314e-06
-1.764266926329583e-05,4.427287876751507e-06
-1.4993040167610161e-05,3.9455367186747026e-06
-1.0978453246934805e-05,8.944502383201325e-07
-8.810576218820643e-06,2.90174421024858e-06
-5.51861467101844e-06,4.126999897380301e-07
-3.5916125398216536e-06,-1.3537182894651778e-06
2.992311010530102e-06,-5.76976435695542e-06
3.8755201785534155e-06,-2.7989699447061867e-06
1.1101777090516407e-05,-4.324513156461762e-06
1.3992280400998425e-05,1.1353254194546025e-06
2.0174744349787943e-05,-3.923054464394227e-06
8.130982678267173e-06,-4.5653882807528134e-06
1.326965411863057e-05,-1.1149311831104569e-05
2.3499767394241644e-06,-3.2004286367737222e-06
-1.8251943174618646e-06,2.098826826113509e-06
-1.3547789421863854e-05,4.989330136595527e-06
-2.4467468392685987e-05,4.106120741198538e-06
-2.0292296539992094e-05,1.6973676792986225e-06
-1.643829273234587e-05,3.865245616907487e-06
-1.2985747162019834e-05,5.732840122618654e-07
-3.350737188156927e-06,1.1353254194546025e-06
-2.066069328066078e-06,-1.5143018572416622e-06
1.386476128573122e-06,-1.032551153912209e-06
1.102148507925449e-05,1.1353254194546025e-06
1.752511707309168e-05,-6.905025884407223e-08
1.6401032553403638e-05,-5.528889232664369e-06
1.5357240044977516e-05,-6.33180661679944e-06
1.24667376439902e-05,-4.163929588685278e-06
1.3349946129892487e-05,-2.2369276848621666e-06
7.729524440946989e-06,-4.705089509116078e-07
5.5616469580854755e-06,1.0550343176873866e-06
-1.6646107496853801e-06,5.551372396439547e-06
-1.0416410987090785e-05,3.784953605645569e-06
-1.8606169760460034e-05,6.434580882341834e-06
-1.756237725203391e-05,4.989330136595527e-06
-1.4671873941551894e-05,1.9382437130843755e-06
-1.0255827874061652e-05,1.536784566269489e-06
-7.847074812161736e-06,-2.2963382662055665e-07
-7.124449439288583e-06,2.098826826113509e-06
2.751435886239051e-06,-1.835468992794631e-06
9.817110367293935e-06,-3.3610122045502067e-06
1.1101777090516407e-05,-8.719680977264943e-07
1.4554322660842445e-05,-7.536183147749398e-06
1.9853578123729676e-05,-7.916760864645767e-07
1.696307481324766e-05,9.15328541850613e-08
1.2547029655252118e-05,-7.113845299500099e-07
8.53244182508206e-06,-1.4340103007270955e-06
-2.387236008871696e-06,4.507578978518723e-06
-1.0175535862799734e-05,4.929920009999478e-07
-1.4350706805998925e-05,7.0769151534477714e-06
-1.820471152313985e-05,9.726542884891387e-06
-1.708062700345181e-05,2.5002859729283955e-06
-1.1781370631069876e-05,1.536784566269489e-06
-1.2744872037728783e-05,2.419993961666478e-06
-6.562407179444563e-06,1.1241300335029791e-08
-1.3434436141324113e-06,2.33970195040456e-06
5.8828131841437425e-06,-1.273426732950611e-06
4.919312686979538e-06,-1.915760549309198e-06
1.1101777090516407e-05,-2.477802809153218e-06
1.190469538414618e-05,-2.959553512482671e-06
1.993386831600219e-05,-3.4413037610647734e-06
1.2547029655252118e-05,-1.273426732950611e-06
3.7952283946651733e-06,-1.6748854250181466e-06
-2.066069328066078e-06,-7.134724455681862e-06
-9.45291048992658e-06,-4.725971848529298e-06
-1.4270414794737007e-05,3.3032033570634667e-06
-1.3387205399340019e-05,6.434580882341834e-06
-2.2219299353309907e-05,5.471080385177629e-06
-2.1095213014632463e-05,4.58787098978064e-06
-1.3708372534892987e-05,8.602458365203347e-06
-8.89086823008256e-06,-2.3172192413767334e-06
-9.419849220648757e-07,-1.0105519322678447e-05
1.078061086445814e-05,-3.039845068997238e-06
6.1236892179294955e-06,8.141591365529166e-07
7.488648861908587e-06,-3.099258378824743e-07
1.3992280400998425e-05,-1.3537182894651778e-06
1.744482506182976e-05,-6.171223503770307e-06
1.8488617570255883e-05,-3.52159531757934e-06
1.752511707309168e-05,4.929920009999478e-07
7.809816452208906e-06,4.106120741198538e-06
1.3061841173112043e-06,4.748454102809774e-06
-4.555113719106885e-06,6.5148728936037514e-06
-5.598906227533007e-06,4.989330136595527e-06
-1.2343412890913896e-05,4.507578978518723e-06
-2.0292296539992094e-05,4.106120741198538e-06
-1.7160919014713727e-05,2.90174421024858e-06
-6.482115622929996e-06,1.1353254194546025e-06
-5.117155524203554e-06,-1.1931347216886934e-06
-1.2631520576178445e-06,-3.9021739439704106e-07
2.189393626395031e-06,-1.7551769815327134e-06
9.576234333508182e-06,-1.9960521058237646e-06
1.439373863831861e-05,-5.288014108373318e-06
9.977692570828367e-06,-4.806263405043865e-06
1.5598114259773865e-05,-1.7551769815327134e-06
1.632074054214172e-05,-3.7624708966177423e-06
7.729524440946989e-06,9.74742306425469e-07
1.8682263771552243e-06,-9.522596542410611e-07
8.244334139817511e-07,8.141591365529166e-07
-5.920073363085976e-06,5.71195550946868e-06
-1.3868956557416823e-05,6.354289780574618e-06
-1.700033499218989e-05,5.792247520730598e-06
-1.7963835489354096e-05,7.317790277738823e-06
-1.708062700345181e-05,-1.4934227010598988e-07
-6.64269919070648e-06,8.944502383201325e-07
-5.277739091980038e-06,-6.905025884407223e-08
1.2258921060492867e-06,-9.522596542410611e-07
6.043397206667578e-06,-3.7624708966177423e-06
7.167481726355618e-06,-1.3537182894651778e-06
1.0298860615876038e-05,-3.52159531757934e-06
1.1262361113040242e-05,-5.448597676149802e-06
1.3911988389736507e-05,-3.6821788853558246e-06
9.897402378555853e-06,-2.156635673600249e-06
7.729524440946989e-06,-1.6748854250181466e-06
1.7879343658933067e-06,-2.0763441170856822e-06
-2.2266528958425624e-06,-8.178517418855336e-06
-7.285033007065067e-06,1.536784566269489e-06
-1.3226622286310885e-05,5.390788373915711e-06
-1.724120920698624e-05,4.266703854227671e-06
-1.5073332178872079e-05,3.222911345801549e-06
-1.3146330275048967e-05,6.113414656283567e-06
-1.2584288015204947e-05,-6.905025884407223e-08
-8.89086823008256e-06,7.33867125290999e-07
-3.4310289720451692e-06,1.1241300335029791e-08
7.488648861908587e-06,-3.280720193288289e-06
9.014192073664162e-06,-3.842762453132309e-06
1.3189363926358055e-05,-1.4934227010598988e-07
1.969299410120584e-05,-6.310925186880922e-07
1.85689095815178e-05,-2.7989699447061867e-06
1.1182069101778325e-05,-2.397511252638651e-06
8.291566700791009e-06,2.33970195040456e-06
5.641938059852691e-06,4.266703854227671e-06
-1.5843187384234625e-06,3.7046615943836514e-06
-2.5478195766481804e-06,4.1864127524604555e-06
-1.2263120879651979e-05,6.675456916127587e-06
-1.3547789421863854e-05,1.1241300335029791e-08
-1.4671873941551894e-05,9.74742306425469e-07
-1.1540495506778825e-05,1.8579517018224578e-06
-6.722990747221047e-06,-2.156635673600249e-06
-2.306944452357129e-06,-2.8792615012207534e-06
4.919312686979538e-06,-2.2369276848621666e-06
7.809816452208906e-06,-4.0033460209087934e-06
1.3992280400998425e-05,-1.3537182894651778e-06
1.6401032553403638e-05,-3.842762453132309e-06
1.5678406271035783e-05,-7.857350283302367e-06
2.025503636104986e-05,-1.915760549309198e-06
1.1262361113040242e-05,-1.1128431651741266e-06
9.977692570828367e-06,-3.9021739439704106e-07
1.7879343658933067e-06,2.90174421024858e-06
-9.934660738508683e-06,5.872538622497814e-06
-1.1460203495516907e-05,8.52216635394143e-06
-1.2825163139495999e-05,5.069621238362743e-06
-1.4109831681707874e-05,3.784953605645569e-06
-1.2985747162019834e-05,2.5805770746956114e-06
-7.686491699132603e-06,2.2594099391426425e-06
-4.795988843397936e-06,5.732840122618654e-07
-3.799426337991463e-07,-2.718677933444269e-06
2.0288096038711956e-06,3.324079784761125e-07
7.97039956523804e-06,-2.7989699447061867e-06
1.158352733909851e-05,-5.609181243926287e-06
1.4875490705890115e-05,-3.842762453132309e-06
1.7846283299149945e-05,-4.806263405043865e-06
1.2948487892572302e-05,-1.5143018572416622e-06
1.102148507925449e-05,-2.7989699447061867e-06
5.641938059852691e-06,1.1241300335029791e-08
-5.277739091980038e-06,3.324079784761125e-07
-9.934660738508683e-06,4.02582872993662e-06
-1.4109831681707874e-05,-4.705089509116078e-07
-1.539450022391975e-05,1.2959094419784378e-06
-1.4270414794737007e-05,2.8214521989866626e-06
-1.531420821265783e-05,3.3032033570634667e-06
-1.6277708709822036e-05,2.0185348148515914e-06
-8.32882597023854e-06,-2.477802809153218e-06
3.3937692478502868e-06,-1.915760549309198e-06
4.919312686979538e-06,-1.4340103007270955e-06
9.09448408492608e-06,1.0550343176873866e-06
1.2948487892572302e-05,-1.1128431651741266e-06
1.1824403372884262e-05,-6.412098628061358e-06
1.7123658835771494e-05,-5.6894728004408535e-06
1.4233156434784178e-05,-3.7624708966177423e-06
8.050691576499958e-06,2.8214521989866626e-06
-7.814013542883913e-07,1.7182486544697895e-07
-6.64269919070648e-06,2.5805770746956114e-06
-9.77407762547955e-06,3.3032033570634667e-06
-1.4591581930289976e-05,6.595164904865669e-06
-1.724120920698624e-05,9.565958862367552e-06
-1.643829273234587e-05,4.668163001042558e-06
-6.963865871512098e-06,1.3762014532403555e-06
-3.109862063865876e-06,1.9382437130843755e-06
3.4268319382135815e-07,4.126999897380301e-07
5.641938059852691e-06,-1.032551153912209e-06
6.605439466511598e-06,-6.310925186880922e-07
7.488648861908587e-06,-2.2963382662055665e-07
9.897402378555853e-06,-2.718677933444269e-06
1.3510530152416322e-05,-1.7551769815327134e-06
1.6802490790723823e-05,-2.5580943656677846e-06
1.021856860461412e-05,-2.3172192413767334e-06
5.802522082376527e-06,-2.5580943656677846e-06
-1.423735170646978e-06,-1.4934227010598988e-07
-6.241240043891594e-06,1.7182486544697895e-07
-1.2423704902175814e-05,1.6170765775314067e-06
-1.643829273234587e-05,2.419993961666478e-06
-1.2825163139495999e-05,3.1426193345396314e-06
-1.7401793229510076e-05,7.33867125290999e-07
-9.613493602955714e-06,-2.2963382662055665e-07
-6.482115622929996e-06,-4.705089509116078e-07
2.2696847281622468e-06,-7.113845299500099e-07
8.130982678267173e-06,-9.522596542410611e-07
9.174776096187998e-06,-4.2442215999471955e-06
1.1182069101778325e-05,-9.864644198387396e-06
1.5999574316083454e-05,-4.404804712976329e-06
1.158352733909851e-05,-3.6821788853558246e-06
1.5598114259773865e-05,-6.974140887905378e-06
1.0539734830672387e-05,-1.594593413756229e-06
3.313478146083071e-06,5.732840122618654e-07
-3.4310289720451692e-06,1.2156174307165202e-06
-6.08065693086246e-06,5.390788373915711e-06
-1.0095243851537816e-05,6.916332040418638e-06
-1.5153624190133996e-05,6.434580882341834e-06
-2.1095213014632463e-05,-2.2963382662055665e-07
-1.5474792235181667e-05,-6.974140887905378e-06
-1.1861662642331794e-05,-4.324513156461762e-06
-3.270445404268685e-06,-3.099258378824743e-07
-2.1463608845806448e-06,4.126999897380301e-07
5.240479822532507e-06,1.0550343176873866e-06
1.0057984582090285e-05,-3.1201366255118046e-06
1.0941194886981975e-05,-4.705089509116078e-07
1.3349946129892487e-05,-2.959553512482671e-06
1.2627321666514035e-05,-7.916760864645767e-07
1.4554322660842445e-05,4.126999897380301e-07
6.766022579540731e-06,2.90174421024858e-06
-4.95657241117442e-06,5.9528306337597314e-06
-6.482115622929996e-06,4.748454102809774e-06
-1.0657286111381836e-05,3.7046615943836514e-06
-1.4511289919028059e-05,8.763042387727182e-06
-1.7963835489354096e-05,2.1791188373754267e-06
-1.2664580026466865e-05,6.595164904865669e-06
-9.77407762547955e-06,2.5805770746956114e-06
-7.124449439288583e-06,4.126999897380301e-07
-3.109862063865876e-06,1.0550343176873866e-06
3.4740612591122044e-06,-7.113845299500099e-07
9.6565263447701e-06,8.141591365529166e-07
1.8488617570255883e-05,-2.6383863769297022e-06
1.7364533050567843e-05,-3.039845068997238e-06
1.2065279406670015e-05,-2.6383863769297022e-06
1.495578089816263e-05,-2.959553512482671e-06
1.5838990293559618e-05,-2.6383863769297022e-06
1.021856860461412e-05,-1.835468992794631e-06
3.6346452816360397e-06,2.33970195040456e-06
-7.847074812161736e-06,2.90174421024858e-06
-1.2503996913437732e-05,5.551372396439547e-06
-1.1139036359963939e-05,6.033122645021649e-06
-1.4993040167610161e-05,7.317790277738823e-06
-1.84455857379362e-05,4.507578978518723e-06
-6.722990747221047e-06,2.0185348148515914e-06
-5.1974475354654714e-06,1.0550343176873866e-06
-1.0222764785794425e-06,8.141591365529166e-07
8.050691576499958e-06,-3.3610122045502067e-06
9.174776096187998e-06,-5.1274305405968335e-06
6.043397206667578e-06,-3.601887328841258e-06
1.3109071915096138e-05,-4.404804712976329e-06
1.5999574316083454e-05,-7.857350283302367e-06
1.158352733909851e-05,-1.1931347216886934e-06
1.2386445632728282e-05,-2.2963382662055665e-07
7.328064839384751e-06,6.535751140290813e-07
-1.2631520576178445e-06,1.4564925550075714e-06
-7.124449439288583e-06,2.1791188373754267e-06
-1.2423704902175814e-05,1.536784566269489e-06
-2.117550502589438e-05,-2.6383863769297022e-06
-2.2299591364571825e-05,-4.163929588685278e-06
-1.700033499218989e-05,-7.113845299500099e-07
-1.0255827874061652e-05,-2.8792615012207534e-06
-5.839781351824058e-06,-8.981434802990407e-06
-2.1935906602266186e-07,-4.5653882807528134e-06
4.83902067571762e-06,-5.368305664887885e-06
1.078061086445814e-05,-3.099258378824743e-07
1.158352733909851e-05,-9.522596542410611e-07
1.0860902875720058e-05,-1.5143018572416622e-06
1.5437532056239434e-05,-1.9960521058237646e-06
1.3671114174940158e-05,4.929920009999478e-07
9.977692570828367e-06,3.544078481354518e-06
6.52514745524968e-06,2.33970195040456e-06
-1.390675095080951e-07,5.631663498206763e-06
-1.4671873941551894e-05,6.033122645021649e-06
-2.0934630811098032e-05,9.726542884891387e-06
-1.531420821265783e-05,6.2739977693127e-06
-1.3628081433125772e-05,5.872538622497814e-06
-5.839781351824058e-06,6.2739977693127e-06
-1.6646107496853801e-06,3.784953605645569e-06
-3.799426337991463e-07,-6.310925186880922e-07
7.809816452208906e-06,-4.806263405043865e-06
6.766022579540731e-06,-1.1128431651741266e-06
9.6565263447701e-06,-2.5580943656677846e-06
1.2306153621466365e-05,-5.609181243926287e-06
1.632074054214172e-05,-5.207722551858751e-06
1.7043366824509576e-05,-2.718677933444269e-06
9.817110367293935e-06,-1.7551769815327134e-06
8.853608051140327e-06,-1.9960521058237646e-06
-8.616929108029581e-07,4.929920009999478e-07
-4.715696832136018e-06,4.909038125333609e-06
-8.168241947714705e-06,5.471080385177629e-06
-1.3467497410601936e-05,5.9528306337597314e-06
-1.4430997907766141e-05,2.5002859729283955e-06
-1.3547789421863854e-05,4.668163001042558e-06
-9.533201591693796e-06,3.4637864700926e-06
-5.920073363085976e-06,1.7182486544697895e-07
1.3061841173112043e-06,-1.1128431651741266e-06
4.196687314106384e-06,9.15328541850613e-08
8.612733836343978e-06,-4.645680292014731e-06
1.102148507925449e-05,-4.0033460209087934e-06
1.4634614672104362e-05,-1.032551153912209e-06
1.2787903870048467e-05,-6.33180661679944e-06
1.3430238141154405e-05,-6.8135573201288935e-06
1.0459444638399873e-05,-6.33180661679944e-06
2.3499767394241644e-06,-5.508009621735255e-07
1.2258921060492867e-06,3.4637864700926e-06
-1.0496702998352703e-05,2.7411610972194467e-06
-1.5153624190133996e-05,7.317790277738823e-06
-1.651858474360779e-05,3.1426193345396314e-06
-1.5233915291901212e-05,-4.966846972820349e-06
-9.372618478664663e-06,8.944502383201325e-07
-6.241240043891594e-06,-1.4934227010598988e-07
-1.2985747162019834e-05,-1.1128431651741266e-06
-6.803282303735614e-06,-1.9960521058237646e-06
-2.788694928312907e-06,-1.1931347216886934e-06
6.6857314777735155e-06,-3.3610122045502067e-06
