Timestamp,Channel_0_mV,Channel_1_mV
2025-07-15 15:56:10.864212,-366.9641990299667,-91.18261613909516
2025-07-15 15:56:10.864434,369.6263076866054,116.92587205768143
2025-07-15 15:56:10.864656,-99.14624509513135,365.2621555197974
2025-07-15 15:56:10.864878,327.1071199312298,-179.20993238654972
2025-07-15 15:56:10.865100,-407.8254342706702,-128.67288218822324
2025-07-15 15:56:10.865323,237.15465579606223,-456.085807506426
2025-07-15 15:56:10.865545,-75.50099820346145,-103.9444812137287
2025-07-15 15:56:10.865767,-260.7684362920627,-227.37611435377892
2025-07-15 15:56:10.865989,-387.1043944773738,236.64318528695992
2025-07-15 15:56:10.866211,230.76457803436915,358.128482008796
2025-07-15 15:56:10.866434,-487.9144321482678,-486.5781005572517
2025-07-15 15:56:10.866656,121.7539923748842,-317.30855652281485
2025-07-15 15:56:10.866878,136.11887283158228,397.915321049407
2025-07-15 15:56:10.867100,113.06100916902301,-324.9756780038605
2025-07-15 15:56:10.867323,171.4039382821444,-410.91833603150997
2025-07-15 15:56:10.867545,52.64193883567884,-325.8239772516715
2025-07-15 15:56:10.867767,-250.4189068758469,340.7853585376778
2025-07-15 15:56:10.867989,224.86236370623658,-282.9233630697151
2025-07-15 15:56:10.884212,19.7702652133695,-166.44839784207488
2025-07-15 15:56:10.884447,186.42039466060783,-429.05473206254806
2025-07-15 15:56:10.884682,-375.28016418629204,105.11182702900044
2025-07-15 15:56:10.884917,-35.42718050917091,-247.1532042461968
2025-07-15 15:56:10.885153,239.26713562136672,-456.51887557903405
2025-07-15 15:56:10.885388,-161.05111832037267,294.6899238761465
2025-07-15 15:56:10.885623,-51.191759960636205,438.8566507352348
2025-07-15 15:56:10.885859,-45.69356258057064,-461.7196462746671
2025-07-15 15:56:10.886094,-141.10848740560766,-466.732630673049
2025-07-15 15:56:10.886329,455.59195259727824,-348.10944294136914
2025-07-15 15:56:10.886564,125.96923546899222,-289.599915550816
2025-07-15 15:56:10.886800,-116.37891679469561,-215.84247505432887
2025-07-15 15:56:10.887035,-162.0415790742381,-225.49851713795601
2025-07-15 15:56:10.887270,241.20211493816987,345.233819451816
2025-07-15 15:56:10.887506,390.7873658603439,432.90001701545737
2025-07-15 15:56:10.887741,48.07411384627335,383.9644496071186
2025-07-15 15:56:10.887976,7.3366848339242665,-70.43266243193636
2025-07-15 15:56:10.904212,-164.59643569662927,-236.66208136180887
2025-07-15 15:56:10.904575,-148.69405029676494,-464.760376076499
2025-07-15 15:56:10.904939,274.71706698313767,483.42616731535907
2025-07-15 15:56:10.905302,423.3073871693374,126.74260076354096
2025-07-15 15:56:10.905666,218.71325196640782,269.474385189333
2025-07-15 15:56:10.906030,-455.2906401058392,-304.76465792791464
2025-07-15 15:56:10.906393,30.480016711897406,-128.23146251519825
2025-07-15 15:56:10.906757,-490.2236260110571,-405.8208783177696
2025-07-15 15:56:10.907121,-233.5269807273542,-7.279255841569636
2025-07-15 15:56:10.907484,-293.0241553777703,-180.59837348842922
2025-07-15 15:56:10.907848,-218.5036020459661,256.16293871038556
2025-07-15 15:56:10.924212,-27.052489635763664,-361.3298303632675
2025-07-15 15:56:10.924656,-1.742291525560404,-313.57731318152736
2025-07-15 15:56:10.925100,342.63929437183776,178.75039307509007
2025-07-15 15:56:10.925545,283.0605778663203,180.11622823390644
2025-07-15 15:56:10.925989,321.062929759653,-136.87747724921138
2025-07-15 15:56:10.926434,-403.8495587825962,-63.598017329377626
2025-07-15 15:56:10.926878,494.021106024725,-158.85950193271805
2025-07-15 15:56:10.927323,-460.61600111789846,243.34009049904557
2025-07-15 15:56:10.927767,132.50565714995992,280.15712257118105
2025-07-15 15:56:10.944212,-210.26370105248128,-19.358080264253317
2025-07-15 15:56:10.944545,10.81571027716734,289.3405301939739
2025-07-15 15:56:10.944878,-211.8691584358208,-374.3028391592164
2025-07-15 15:56:10.945211,-102.33107343579462,101.8935677718224
2025-07-15 15:56:10.945545,-117.23812700077553,277.34707493421945
2025-07-15 15:56:10.945878,-437.5445345333422,274.62965547839485
2025-07-15 15:56:10.946211,376.90010693756676,103.40824223324432
2025-07-15 15:56:10.946545,-13.279437542750088,-471.5408634989364
2025-07-15 15:56:10.946878,-4.453606681031545,323.09062390874044
2025-07-15 15:56:10.947211,165.84685619911295,-246.13939070466319
2025-07-15 15:56:10.947545,199.0100836447648,-69.51180890420108
2025-07-15 15:56:10.947878,-296.54285738876433,434.5336265772577
2025-07-15 15:56:10.964212,446.0127933720738,376.8275614069363
2025-07-15 15:56:10.964575,-439.72662399321683,459.04126929293216
2025-07-15 15:56:10.964939,-100.34059241063551,-419.11984446934747
2025-07-15 15:56:10.965302,132.44618072535695,-429.27537763183767
2025-07-15 15:56:10.965666,-236.50025495719575,80.18712289639075
2025-07-15 15:56:10.966030,407.432425340681,-430.3290560925898
2025-07-15 15:56:10.966393,187.4141580981984,-165.6064796172817
2025-07-15 15:56:10.966757,-434.638017536849,38.66628355636169
2025-07-15 15:56:10.967121,-383.5739810088102,402.64614601761537
2025-07-15 15:56:10.967484,364.06926629035877,-451.32047131899924
2025-07-15 15:56:10.967848,119.8516673112706,-447.5920099438222
2025-07-15 15:56:10.984212,214.9164550826864,138.41818446401942
2025-07-15 15:56:10.984545,-177.56737531482634,-38.09139070174871
2025-07-15 15:56:10.984878,439.808889409535,-469.5762065449677
2025-07-15 15:56:10.985211,-39.84817837990573,-329.23471338782076
2025-07-15 15:56:10.985545,275.91607283861265,13.110459968107762
2025-07-15 15:56:10.985878,-310.17837044502903,6.891856570013147
2025-07-15 15:56:10.986211,-319.0502931881938,-482.7938154053629
2025-07-15 15:56:10.986545,389.0416436604228,-448.5985261469251
2025-07-15 15:56:10.986878,-104.39859051945513,-71.55044192630135
2025-07-15 15:56:10.987211,-267.5722205127252,247.28766418864518
2025-07-15 15:56:10.987545,-38.48360925482018,-30.273827564448084
2025-07-15 15:56:10.987878,-231.81067271577018,96.49848582577306
2025-07-15 15:56:11.004212,262.99326044282145,-461.94630227506417
2025-07-15 15:56:11.004447,-239.46878070405586,-250.48822947194583
2025-07-15 15:56:11.004682,169.22696675688337,-257.243549204761
2025-07-15 15:56:11.004917,342.2215661879393,-209.60130732363024
2025-07-15 15:56:11.005153,-152.15472378954587,42.34637195136463
2025-07-15 15:56:11.005388,53.031710071420775,-72.26474598431207
2025-07-15 15:56:11.005623,35.440334975395444,-143.64865108597104
2025-07-15 15:56:11.005859,-89.32302801582756,23.276465357213056
2025-07-15 15:56:11.006094,-150.44412818370267,253.32136994302437
2025-07-15 15:56:11.006329,334.7353904182569,-75.7777515774153
2025-07-15 15:56:11.006564,398.3021725194517,357.796165698708
2025-07-15 15:56:11.006800,182.93790957066028,435.2299437903323
2025-07-15 15:56:11.007035,-367.79517687033746,-275.804183837179
2025-07-15 15:56:11.007270,-285.87690830022717,13.639364485828196
2025-07-15 15:56:11.007506,239.00197849726976,198.4535283285577
2025-07-15 15:56:11.007741,15.732352682464125,191.19498915134432
2025-07-15 15:56:11.007976,-367.95540795003245,-156.14835894556046
2025-07-15 15:56:11.024212,-490.92045440357725,201.15601927742648
2025-07-15 15:56:11.024545,-30.445826323562983,-18.39369644873733
2025-07-15 15:56:11.024878,-89.8170935408209,277.0715213078255
2025-07-15 15:56:11.025211,222.59460161861205,354.43706806455157
2025-07-15 15:56:11.025545,316.9435231993284,121.54119364346934
2025-07-15 15:56:11.025878,-288.41457532803065,176.0956889338289
2025-07-15 15:56:11.026211,52.747106080699496,235.5587790930756
2025-07-15 15:56:11.026545,227.12868904712036,227.4301660252869
2025-07-15 15:56:11.026878,-165.7097836448649,-174.93921069131204
2025-07-15 15:56:11.027211,-299.2439327614976,249.8016394861785
2025-07-15 15:56:11.027545,83.32813286538908,-44.216369587210295
2025-07-15 15:56:11.027878,-484.73623892548324,-155.63338022203033
2025-07-15 15:56:11.044212,163.09498792771922,160.59104682788723
2025-07-15 15:56:11.044462,-410.93824292099055,-0.6153542302565143
2025-07-15 15:56:11.044712,-265.7700576266002,-207.3866711792528
2025-07-15 15:56:11.044962,165.66927354042127,73.73043267360902
2025-07-15 15:56:11.045212,314.6482587715776,458.04506503038533
2025-07-15 15:56:11.045462,-142.33132233599088,-485.7439007471527
2025-07-15 15:56:11.045712,-277.2691511149751,149.55945667722563
2025-07-15 15:56:11.045962,390.95147438812046,101.57353694935102
2025-07-15 15:56:11.046212,196.95380277247602,260.2025712413506
2025-07-15 15:56:11.046462,-430.93566896888325,-304.9165248670474
2025-07-15 15:56:11.046712,286.1307762265766,-301.10858535977
2025-07-15 15:56:11.046962,-197.8735778050846,-452.0265774319572
2025-07-15 15:56:11.047212,-19.19133081227733,-138.2140045966941
2025-07-15 15:56:11.047462,279.40546870624325,43.841870562636814
2025-07-15 15:56:11.047712,272.5690835925061,-353.91079147960625
2025-07-15 15:56:11.047962,97.94536135377768,-208.27176488309505
2025-07-15 15:56:11.064212,-191.31671727051867,-392.8155080658435
2025-07-15 15:56:11.064478,-417.21401448566564,-13.182098557253369
2025-07-15 15:56:11.064745,67.23841314328081,-426.2475614705011
2025-07-15 15:56:11.065011,-76.56604292228496,238.28089476374544
2025-07-15 15:56:11.065278,-32.432473854913894,161.48511763920385
2025-07-15 15:56:11.065545,-23.02290446485523,306.11869201772333
2025-07-15 15:56:11.065811,477.61779655571445,494.4209773544379
2025-07-15 15:56:11.066078,-461.13270585016454,31.056376122975053
2025-07-15 15:56:11.066345,389.9739524982266,9.28828199540635
2025-07-15 15:56:11.066611,277.7728876024174,-439.34895477155743
2025-07-15 15:56:11.066878,-87.8448452830217,250.88141167017523
2025-07-15 15:56:11.067145,92.5412012383797,-470.26009946731097
2025-07-15 15:56:11.067411,-43.33614579767618,324.9376785935741
2025-07-15 15:56:11.067678,52.02470726930403,35.94429750605127
2025-07-15 15:56:11.067945,-248.58912527934683,-25.914413082600106
2025-07-15 15:56:11.084212,-71.31187489758207,497.5596042897199
2025-07-15 15:56:11.084412,486.21369139301123,299.86469084109285
2025-07-15 15:56:11.084612,459.17179682038716,-127.99877550039861
2025-07-15 15:56:11.084812,-226.2028978819244,458.20291697502
2025-07-15 15:56:11.085012,-94.11831583887607,111.86637772114193
2025-07-15 15:56:11.085212,32.187463624406405,-68.2253277379591
2025-07-15 15:56:11.085412,-309.7351126294852,-452.52228694987093
2025-07-15 15:56:11.085612,184.62260465150916,-495.36308230259954
2025-07-15 15:56:11.085812,465.06316895724956,-131.1305707218753
2025-07-15 15:56:11.086012,-411.72236721548717,-198.88726130753366
2025-07-15 15:56:11.086212,467.25020435210115,-299.2404326619957
2025-07-15 15:56:11.086412,234.95154636739983,-468.80451939488034
2025-07-15 15:56:11.086612,-66.58087380173828,-53.73575494959647
2025-07-15 15:56:11.086812,347.5518253105763,-493.7085224234611
2025-07-15 15:56:11.087012,396.53266424336744,45.98858157731695
2025-07-15 15:56:11.087212,119.64584384151794,-92.20539652396695
2025-07-15 15:56:11.087412,-435.686800783863,203.22711360065477
2025-07-15 15:56:11.087612,338.3557158726345,70.31744260848768
2025-07-15 15:56:11.087812,-145.37058238131738,434.72871635789886
2025-07-15 15:56:11.088012,-244.83052993417542,38.04640224136119
2025-07-15 15:56:11.104212,-281.4490390508935,-372.45984336229753
2025-07-15 15:56:11.104656,75.3250638368063,-424.24529633351915
2025-07-15 15:56:11.105100,269.2428201464571,-176.83844944597325
2025-07-15 15:56:11.105545,485.7639623149048,395.40639795612196
2025-07-15 15:56:11.105989,7.714152082396993,-180.84905721022147
2025-07-15 15:56:11.106434,-362.03573250953366,166.4833165872758
2025-07-15 15:56:11.106878,189.45186508680013,261.80230148160433
2025-07-15 15:56:11.107323,351.7430075525084,-434.24663682816634
2025-07-15 15:56:11.107767,-47.384592341464554,-386.9201693814491
2025-07-15 15:56:11.124212,-272.13437623572213,24.718643683214964
2025-07-15 15:56:11.124447,239.76104513986343,102.24453659652329
2025-07-15 15:56:11.124682,168.8108754555085,-481.6556665377673
2025-07-15 15:56:11.124917,137.20421326066332,-38.223328813247065
2025-07-15 15:56:11.125153,-91.15244440266724,-325.69791274066716
2025-07-15 15:56:11.125388,76.39591433136559,-411.46628389755614
2025-07-15 15:56:11.125623,-114.30935492696858,-469.91305213738264
2025-07-15 15:56:11.125859,117.43228591728735,103.6573862297954
2025-07-15 15:56:11.126094,455.59934784871166,-312.0339711494148
2025-07-15 15:56:11.126329,194.07767965787286,286.9974587104823
2025-07-15 15:56:11.126564,53.47827734706948,-334.2354285940612
2025-07-15 15:56:11.126800,259.3793451962995,-328.7836746613926
2025-07-15 15:56:11.127035,39.40169433564586,189.13416101696043
2025-07-15 15:56:11.127270,-228.7922228803477,240.41259989696346
2025-07-15 15:56:11.127506,-320.69637422040535,-221.47755468007915
2025-07-15 15:56:11.127741,-256.5256800254009,285.08756930884135
2025-07-15 15:56:11.127976,104.71848117755837,-17.8004686686657
2025-07-15 15:56:11.144212,166.51370223410333,-400.5002274233711
2025-07-15 15:56:11.144656,217.03570592532333,-416.15411296712455
2025-07-15 15:56:11.145100,-448.58816164763635,-314.1714088765091
2025-07-15 15:56:11.145545,-75.36660634535156,-88.58699060835909
2025-07-15 15:56:11.145989,-171.3790578807122,-249.9426448270441
2025-07-15 15:56:11.146434,77.38625021565417,-414.3769757354137
2025-07-15 15:56:11.146878,10.775116077074472,-235.93572536648867
2025-07-15 15:56:11.147323,-252.46534125927477,19.12558642033207
2025-07-15 15:56:11.147767,-127.80948198527653,-347.73215643941734
2025-07-15 15:56:11.164212,309.59408928841196,-353.3797237567485
2025-07-15 15:56:11.164497,-440.64664104089866,-21.95525399448104
2025-07-15 15:56:11.164783,-164.52509724513595,475.94697534676925
2025-07-15 15:56:11.165069,197.8380274653856,-423.22355243888273
2025-07-15 15:56:11.165354,-262.90774915811414,128.83666494044792
2025-07-15 15:56:11.165640,-361.1654308512423,422.2500444302175
2025-07-15 15:56:11.165926,-149.0075615037739,-50.30557578050434
2025-07-15 15:56:11.166211,-244.549483161719,246.29804260151764
2025-07-15 15:56:11.166497,412.49823389278936,-494.6670915831198
2025-07-15 15:56:11.166783,231.1982023685863,387.3533632816858
2025-07-15 15:56:11.167069,381.21143521837485,-238.29912291980435
2025-07-15 15:56:11.167354,440.01373732037666,-186.58649922763283
2025-07-15 15:56:11.167640,40.58240065816881,240.68329780326928
2025-07-15 15:56:11.167926,163.30105755617603,357.5093277254682
2025-07-15 15:56:11.184212,-50.74074203466961,-174.78902031396194
2025-07-15 15:56:11.184497,-312.7530611951839,436.4751385761057
2025-07-15 15:56:11.184783,-265.1393949585963,-325.67573413078975
2025-07-15 15:56:11.185069,409.25265410288375,-375.5340283805331
2025-07-15 15:56:11.185354,19.721155463000173,-31.915311207352943
2025-07-15 15:56:11.185640,178.9555608163646,-7.81892048169442
2025-07-15 15:56:11.185926,-459.4029389912937,420.08854288915904
2025-07-15 15:56:11.186211,415.32190925246925,87.34948708014042
2025-07-15 15:56:11.186497,410.29125572950966,240.8880259843845
2025-07-15 15:56:11.186783,-219.99890661374542,272.481053603124
2025-07-15 15:56:11.187069,-27.40320504767459,278.9382877268464
2025-07-15 15:56:11.187354,-433.03001782090655,-49.583017689246105
2025-07-15 15:56:11.187640,-489.2641155622164,428.6972972130708
2025-07-15 15:56:11.187926,-354.24135974826834,-330.4657109205888
2025-07-15 15:56:11.204212,90.7935178053159,-299.7804695715135
2025-07-15 15:56:11.204447,-331.9373579846622,-124.08555160570455
2025-07-15 15:56:11.204682,-228.95310292452632,353.7295505606319
2025-07-15 15:56:11.204917,-201.90481548607698,-490.7628708080338
2025-07-15 15:56:11.205153,135.3533833757158,-357.26235587042544
2025-07-15 15:56:11.205388,27.648815238103225,-180.92148261099595
2025-07-15 15:56:11.205623,285.50120264522513,-39.55073112451248
2025-07-15 15:56:11.205859,-302.3899900219759,62.797259663271575
2025-07-15 15:56:11.206094,-139.11592284890872,-30.74927323376653
2025-07-15 15:56:11.206329,-42.829698657162,119.09961820813044
2025-07-15 15:56:11.206564,411.02909445609873,-486.2306491171632
2025-07-15 15:56:11.206800,362.7513256169997,3.5723657154881607
2025-07-15 15:56:11.207035,453.6367171062326,-232.85847013190266
2025-07-15 15:56:11.207270,-423.25271209357743,148.39704256014647
2025-07-15 15:56:11.207506,6.9990421174150015,-86.10598015948733
2025-07-15 15:56:11.207741,16.074757067861356,-417.76613542910025
2025-07-15 15:56:11.207976,445.46632796349456,-307.1093408823597
2025-07-15 15:56:11.224212,53.224590266855444,-246.13534792041648
2025-07-15 15:56:11.224434,199.95771752510575,174.73874516372223
2025-07-15 15:56:11.224656,-155.04301594766002,-403.30325759016284
2025-07-15 15:56:11.224878,-450.6366181475583,98.79019870896059
2025-07-15 15:56:11.225100,84.65056914018578,263.1473782609828
2025-07-15 15:56:11.225323,-323.14345324278224,6.018788667681463
2025-07-15 15:56:11.225545,-226.8973871585722,-38.089515779256544
2025-07-15 15:56:11.225767,-228.77628846806732,498.4245558038705
2025-07-15 15:56:11.225989,201.52649564725004,-119.97493373603396
2025-07-15 15:56:11.226211,-237.027708799484,269.7247893208104
2025-07-15 15:56:11.226434,191.8083075735202,107.74824559682065
2025-07-15 15:56:11.226656,364.67999724815456,-219.57478128949236
2025-07-15 15:56:11.226878,301.5631796137101,333.4905900728993
2025-07-15 15:56:11.227100,125.85881276532155,-275.21256919110016
2025-07-15 15:56:11.227323,-489.9448380102571,145.91855065024845
2025-07-15 15:56:11.227545,139.63188520452297,-254.38876656901655
2025-07-15 15:56:11.227767,-472.25893093703905,-151.5047540693526
2025-07-15 15:56:11.227989,347.3877876722431,202.46370015764353
2025-07-15 15:56:11.244212,413.3932126702788,284.09391759596474
2025-07-15 15:56:11.244462,336.7031657669901,248.94144557416473
2025-07-15 15:56:11.244712,-153.09743021023405,108.1585820556877
2025-07-15 15:56:11.244962,-171.56831594867958,-492.67477941473084
2025-07-15 15:56:11.245212,-433.4440658026485,-229.9239008752104
2025-07-15 15:56:11.245462,-367.9475988756059,185.1874280245945
2025-07-15 15:56:11.245712,360.85187672679046,495.5086326068629
2025-07-15 15:56:11.245962,258.03445230932437,50.59134206971669
2025-07-15 15:56:11.246212,-391.63920904006375,-231.22743410974044
2025-07-15 15:56:11.246462,473.0719952428334,429.0958777418041
2025-07-15 15:56:11.246712,-320.22522885034545,327.2646910299775
2025-07-15 15:56:11.246962,-177.78783783363303,-353.7477167928141
2025-07-15 15:56:11.247212,-267.47884593548764,-158.00802246302845
2025-07-15 15:56:11.247462,124.07947121397922,-460.6492989184826
2025-07-15 15:56:11.247712,371.23586256896124,-141.8819154887949
2025-07-15 15:56:11.247962,-401.0031882990088,-129.43019905763788
2025-07-15 15:56:11.264212,-296.6670199195064,-123.90036060154131
2025-07-15 15:56:11.264519,191.69135828911612,146.7489911839142
2025-07-15 15:56:11.264827,68.7817717607918,-201.59503599445628
2025-07-15 15:56:11.265135,-366.0400174796361,-72.18003842169827
2025-07-15 15:56:11.265442,456.7823086824335,75.45916870523047
2025-07-15 15:56:11.265750,238.98530746527206,275.0795259218628
2025-07-15 15:56:11.266058,-108.53827818242121,60.146760327817105
2025-07-15 15:56:11.266365,399.20775150309123,-182.6480002497488
2025-07-15 15:56:11.266673,281.424338123727,-307.42683834138694
2025-07-15 15:56:11.266981,-375.4100663012056,-383.7479322241734
2025-07-15 15:56:11.267288,34.91240598367017,-303.98544577139575
2025-07-15 15:56:11.267596,-10.09511537843656,251.8002165410602
2025-07-15 15:56:11.267904,-43.5743676390361,-172.89780794022067
2025-07-15 15:56:11.284212,434.39568035777484,-65.15244194693082
2025-07-15 15:56:11.284575,-151.25743614753372,426.79431972305304
2025-07-15 15:56:11.284939,375.59695206018773,108.79138773380214
2025-07-15 15:56:11.285302,-66.27459015049584,-298.1692520113133
2025-07-15 15:56:11.285666,213.0996593261948,-261.20883579639906
2025-07-15 15:56:11.286030,326.23981630597666,226.1016898757075
2025-07-15 15:56:11.286393,-171.9468077067737,124.05546002540575
2025-07-15 15:56:11.286757,-113.22199765257977,-137.0302404575002
2025-07-15 15:56:11.287121,-89.12783432399164,-411.29768657649845
2025-07-15 15:56:11.287484,450.5752232123623,397.1428186739414
2025-07-15 15:56:11.287848,-34.167580867555216,483.73096386627924
2025-07-15 15:56:11.304212,-195.65003710298015,-310.26525356393375
2025-07-15 15:56:11.304878,418.9520450445698,460.0501598663832
2025-07-15 15:56:11.305545,188.49053619001393,-170.59229324315407
2025-07-15 15:56:11.306211,-342.72730355849313,-1.8513806174294132
2025-07-15 15:56:11.306878,188.97377561621443,420.7854768230618
2025-07-15 15:56:11.307545,415.68757230179267,-244.5953441786648
2025-07-15 15:56:11.324212,216.31856356998128,331.85171672150443
2025-07-15 15:56:11.324612,-300.82017185737084,-28.073580750488475
2025-07-15 15:56:11.325012,272.3710839365134,209.17563272879693
2025-07-15 15:56:11.325412,129.20921370077986,-7.851985115415744
2025-07-15 15:56:11.325812,-228.6177957080812,228.74441028625404
2025-07-15 15:56:11.326212,67.17340543030173,-325.0461321246746
2025-07-15 15:56:11.326612,310.8267989263005,-20.470489249628997
2025-07-15 15:56:11.327012,-68.66336637347894,-462.08476729504855
2025-07-15 15:56:11.327412,-338.89088949027746,-280.90768340552984
2025-07-15 15:56:11.327812,0.6541170872491762,-419.6282400912963
2025-07-15 15:56:11.344212,276.69942378683857,-38.904565179212454
2025-07-15 15:56:11.344412,115.26553493079496,307.07278496665367
2025-07-15 15:56:11.344612,324.15571948310514,403.5162984177798
2025-07-15 15:56:11.344812,-89.62670774467608,41.409939480731964
2025-07-15 15:56:11.345012,-23.522363212277867,-422.5744926036584
2025-07-15 15:56:11.345212,-438.16506975701986,-257.2156251222598
2025-07-15 15:56:11.345412,-200.07019407042594,446.91591775424524
2025-07-15 15:56:11.345612,-404.17037426229683,50.10516237044476
2025-07-15 15:56:11.345812,-261.9181008637863,-242.02772708889762
2025-07-15 15:56:11.346012,159.51185419421995,-127.38865328388857
2025-07-15 15:56:11.346212,-322.7633493140165,-97.3173445980321
2025-07-15 15:56:11.346412,129.29561847889124,445.3107205918644
2025-07-15 15:56:11.346612,-363.7670475647615,105.59356649625897
2025-07-15 15:56:11.346812,340.69750576804927,-465.03691797005655
2025-07-15 15:56:11.347012,149.17669185723253,425.03111187392665
2025-07-15 15:56:11.347212,-400.93148004844414,262.87163763979845
2025-07-15 15:56:11.347412,-440.3063059168477,479.41347212694666
2025-07-15 15:56:11.347612,-235.31330258159278,307.22040388818175
2025-07-15 15:56:11.347812,127.42303303879294,-309.513381866383
2025-07-15 15:56:11.348012,206.46222664923232,-275.6508195200231
2025-07-15 15:56:11.364212,-488.3917379127922,-318.79105978389384
2025-07-15 15:56:11.364545,344.7016508454942,-338.56419591526856
2025-07-15 15:56:11.364878,417.32078862187564,454.3988556074502
2025-07-15 15:56:11.365211,418.9377762568233,233.19991308845124
2025-07-15 15:56:11.365545,-182.56000694066068,-367.33396281824014
2025-07-15 15:56:11.365878,-12.602168743294897,113.31980303199066
2025-07-15 15:56:11.366211,170.65744969608602,268.34306696124827
2025-07-15 15:56:11.366545,339.51485089429013,-66.7129356124363
2025-07-15 15:56:11.366878,422.9420834405737,121.44862018634706
2025-07-15 15:56:11.367211,-172.8490713522438,-246.08307186504607
2025-07-15 15:56:11.367545,421.95601107013636,143.87614965083742
2025-07-15 15:56:11.367878,269.18272957182035,-40.00566628990964
2025-07-15 15:56:11.384212,-418.17506125208934,-175.215256936866
2025-07-15 15:56:11.384478,-248.02275693220156,-133.6449365342424
2025-07-15 15:56:11.384745,-29.371812780367918,-290.95587459444715
2025-07-15 15:56:11.385011,230.13570635907047,210.68987916475044
2025-07-15 15:56:11.385278,302.9370856606797,251.01590003933313
2025-07-15 15:56:11.385545,189.2826738877577,-417.55437667422456
2025-07-15 15:56:11.385811,78.79277356226248,482.0051257833868
2025-07-15 15:56:11.386078,-469.41081882218884,-479.21728641668835
2025-07-15 15:56:11.386345,203.444477515774,-149.92810689866462
2025-07-15 15:56:11.386611,491.73680582541624,-424.66554450422086
2025-07-15 15:56:11.386878,-110.66077986407043,-397.6220451660004
2025-07-15 15:56:11.387145,44.54480756272028,-472.18103313415236
2025-07-15 15:56:11.387411,132.34683827719346,-444.1339025711186
2025-07-15 15:56:11.387678,262.6059400934579,183.14818999283602
2025-07-15 15:56:11.387945,-403.66031331775343,272.8805680766545
2025-07-15 15:56:11.404212,-298.8551697205854,474.92255869989253
2025-07-15 15:56:11.404478,-169.8614671498164,55.41006542562309
2025-07-15 15:56:11.404745,382.11643872003754,430.73035362483984
2025-07-15 15:56:11.405011,-165.4885793237009,-324.21606106825317
2025-07-15 15:56:11.405278,319.9049741552194,-266.48516253621267
2025-07-15 15:56:11.405545,-368.4223597134679,193.6741730849659
2025-07-15 15:56:11.405811,-116.83178933356453,-363.5320087702757
2025-07-15 15:56:11.406078,249.79050346774216,-299.4650111072711
2025-07-15 15:56:11.406345,-23.7927908321426,130.6754998231802
2025-07-15 15:56:11.406611,425.94468093021374,-208.3411401184798
2025-07-15 15:56:11.406878,-409.91666074378884,401.08219796779963
2025-07-15 15:56:11.407145,415.77600739006084,110.90304444486037
2025-07-15 15:56:11.407411,282.18606216314436,270.9890717787705
2025-07-15 15:56:11.407678,-83.74391718663145,-265.51041377375304
2025-07-15 15:56:11.407945,-124.0912589108085,-115.5935635031463
2025-07-15 15:56:11.424212,172.81820615919708,-198.72033831617466
2025-07-15 15:56:11.424519,-422.1426558238477,-343.02115193913903
2025-07-15 15:56:11.424827,-457.9458336688199,-36.28957608516225
2025-07-15 15:56:11.425135,-441.10748029567657,100.85605922145544
2025-07-15 15:56:11.425442,323.3100801332665,-9.591108442204927
2025-07-15 15:56:11.425750,-134.02313918574117,-123.99815872765953
2025-07-15 15:56:11.426058,-171.89182075477783,-109.1961923858882
2025-07-15 15:56:11.426365,-371.2976550257803,330.31834562860524
2025-07-15 15:56:11.426673,-421.51483600854533,-244.26122562935115
2025-07-15 15:56:11.426981,100.66653426596872,88.18505576306757
2025-07-15 15:56:11.427288,-53.4424802922361,234.16237156958675
2025-07-15 15:56:11.427596,480.88524489433394,-313.6802558241786
2025-07-15 15:56:11.427904,287.9681033322545,-125.79035501089709
2025-07-15 15:56:11.444212,499.72486425186503,-23.06410165428474
2025-07-15 15:56:11.444878,449.74138384,353.7549123319676
2025-07-15 15:56:11.445545,431.04990734105286,-8.41528040663843
2025-07-15 15:56:11.446211,409.6050896317811,-437.296176528977
2025-07-15 15:56:11.446878,483.6273422277453,430.7900985033972
2025-07-15 15:56:11.447545,432.4270628744737,-181.5741194077055
2025-07-15 15:56:11.464212,170.10849693398256,150.67872857510713
2025-07-15 15:56:11.464462,251.26570686634147,-278.58381312346023
2025-07-15 15:56:11.464712,-303.17728247283026,342.88837681537495
2025-07-15 15:56:11.464962,-151.12758746112786,-286.9805623907573
2025-07-15 15:56:11.465212,9.155225129101268,353.4911173299554
2025-07-15 15:56:11.465462,-207.87653379732376,-71.25958341759309
2025-07-15 15:56:11.465712,-245.8433274391868,-312.06205909814867
2025-07-15 15:56:11.465962,147.85041770243038,107.56115992822924
2025-07-15 15:56:11.466212,-67.2802241534909,-73.06373738489901
2025-07-15 15:56:11.466462,-102.5058276965949,-12.614807419474516
2025-07-15 15:56:11.466712,152.50777827457614,-479.269736916626
2025-07-15 15:56:11.466962,-477.2546821539032,40.48147283492142
2025-07-15 15:56:11.467212,-304.95939060608737,92.07514830354887
2025-07-15 15:56:11.467462,-244.70475502561285,-27.64698726275651
2025-07-15 15:56:11.467712,-96.6532336132139,-484.97715391467057
2025-07-15 15:56:11.467962,155.65802016916336,-333.14717162405657
2025-07-15 15:56:11.484212,-279.3208353502318,312.2829587282124
2025-07-15 15:56:11.484656,-404.35907503524703,-20.503805077430684
2025-07-15 15:56:11.485100,-417.40258498924834,204.85300591771556
2025-07-15 15:56:11.485545,176.82299487353953,326.7033687495302
2025-07-15 15:56:11.485989,-498.7074165097638,-20.23137490486215
2025-07-15 15:56:11.486434,206.78330498086564,427.4167102616426
2025-07-15 15:56:11.486878,-424.8104266446721,450.0015740252496
2025-07-15 15:56:11.487323,216.6658749610341,499.61247818881
2025-07-15 15:56:11.487767,214.9334759090715,361.39982572620215
2025-07-15 15:56:11.504212,91.26991123742846,61.55886118177125
2025-07-15 15:56:11.504545,495.6913218258794,-322.0919028492151
2025-07-15 15:56:11.504878,-146.134588445191,-29.18305911732068
2025-07-15 15:56:11.505211,-301.4024476814982,172.73017613435002
2025-07-15 15:56:11.505545,-449.2274540334592,41.48022381583871
2025-07-15 15:56:11.505878,441.04669017089304,-491.95435840327787
2025-07-15 15:56:11.506211,-389.4174617071686,-347.64161379590996
2025-07-15 15:56:11.506545,-297.3918179372962,-289.72128903834727
2025-07-15 15:56:11.506878,92.97298436210986,45.252424717774375
2025-07-15 15:56:11.507211,135.00131915753173,-482.63808463154754
2025-07-15 15:56:11.507545,-456.15631628296137,122.30580252580933
2025-07-15 15:56:11.507878,-345.15599939647467,-191.36137055826362
2025-07-15 15:56:11.524212,119.07635595313945,-148.0775695251283
2025-07-15 15:56:11.524712,-136.48478693374602,430.9033661857743
2025-07-15 15:56:11.525212,-395.29985447080753,497.28739371614824
2025-07-15 15:56:11.525712,332.52536276374747,-367.87601535806647
2025-07-15 15:56:11.526212,311.9942224429477,12.350482724453855
2025-07-15 15:56:11.526712,-74.9145101042784,430.77980533362415
2025-07-15 15:56:11.527212,75.42198824399338,308.56671434201735
2025-07-15 15:56:11.527712,201.26994909744883,13.161733928057629
2025-07-15 15:56:11.544212,-106.77578738947568,238.67235781503655
2025-07-15 15:56:11.544519,-20.253995476634316,203.27145895714239
2025-07-15 15:56:11.544827,480.09195037319034,-386.74044842490775
2025-07-15 15:56:11.545135,289.2897532806966,10.248975446326881
2025-07-15 15:56:11.545442,282.89658377199385,-105.62619471082604
2025-07-15 15:56:11.545750,121.60971823206467,-236.28100705577168
2025-07-15 15:56:11.546058,41.594796304021315,-39.65988308702663
2025-07-15 15:56:11.546365,411.14387139105327,-164.18685717882784
2025-07-15 15:56:11.546673,-223.6337491678708,232.76387985087365
2025-07-15 15:56:11.546981,-344.58628616801167,416.47927450130555
2025-07-15 15:56:11.547288,110.99314838212808,137.71196752775847
2025-07-15 15:56:11.547596,-343.5305522235968,-490.52541217789616
2025-07-15 15:56:11.547904,65.5190062857921,-493.6659132971336
2025-07-15 15:56:11.564212,364.54348014655875,256.4570653359584
2025-07-15 15:56:11.564545,-49.89124427769764,-469.9933813146543
2025-07-15 15:56:11.564878,91.2086775443828,237.80357598965804
2025-07-15 15:56:11.565211,-483.97891747807176,388.2956462704386
2025-07-15 15:56:11.565545,-255.25558575002816,398.6230738388339
2025-07-15 15:56:11.565878,-143.7549550012581,-232.7908914787189
2025-07-15 15:56:11.566211,-75.62346653236483,-275.44176270040964
2025-07-15 15:56:11.566545,272.82422042909957,-144.95725757807065
2025-07-15 15:56:11.566878,64.47248075456002,221.47575804462053
2025-07-15 15:56:11.567211,378.761570926848,-477.33598239757544
2025-07-15 15:56:11.567545,23.328836917997705,-70.5098940129377
2025-07-15 15:56:11.567878,-131.62352718381675,415.6354024329303
2025-07-15 15:56:11.584212,60.04091847160157,-245.21361892052107
2025-07-15 15:56:11.584783,387.07345375247417,-157.2133797975264
2025-07-15 15:56:11.585354,-466.04978828105584,-94.78365104621366
2025-07-15 15:56:11.585926,25.349867154429376,-496.42246537556343
2025-07-15 15:56:11.586497,-80.33153324534516,113.80226829003504
2025-07-15 15:56:11.587069,-265.7629197669503,37.7041044733038
2025-07-15 15:56:11.587640,-33.270994827125264,288.1533636452468
2025-07-15 15:56:11.604212,188.80082515114896,393.9897518002256
2025-07-15 15:56:11.604878,454.4375246620292,-105.13772766178363
2025-07-15 15:56:11.605545,348.35446916932347,-80.69291714433513
2025-07-15 15:56:11.606211,152.92829954736771,-21.924339407227933
2025-07-15 15:56:11.606878,28.742948767443295,-37.49936254358698
2025-07-15 15:56:11.607545,-497.6016993702066,-78.83154962433395
2025-07-15 15:56:11.624212,276.13793928632845,-40.28030321661714
2025-07-15 15:56:11.624783,-80.24302962200835,-69.00123814435676
2025-07-15 15:56:11.625354,-138.4615260579534,-259.050832277764
2025-07-15 15:56:11.625926,-40.03048117123507,237.0508422186491
2025-07-15 15:56:11.626497,-406.0555987958153,116.00393591346858
2025-07-15 15:56:11.627069,-340.46985843158893,-310.26739007350847
2025-07-15 15:56:11.627640,-166.56790467083937,-312.28283282853283
2025-07-15 15:56:11.644212,308.8799470241137,-132.6232483322998
2025-07-15 15:56:11.644656,132.37920244389534,-176.68797324488463
2025-07-15 15:56:11.645100,418.67395804015473,-395.4974569546256
2025-07-15 15:56:11.645545,-401.6613159363792,383.1194365731403
2025-07-15 15:56:11.645989,36.37180459191359,393.27600008992454
2025-07-15 15:56:11.646434,71.3182037632231,264.0100071994186
2025-07-15 15:56:11.646878,37.434697948161215,115.00749184565802
2025-07-15 15:56:11.647323,-209.5454294685307,366.5174795363879
2025-07-15 15:56:11.647767,-38.09240997800657,454.6902730326698
2025-07-15 15:56:11.664212,407.09098814070603,-445.7672158751521
2025-07-15 15:56:11.664434,-169.24396129204342,183.9975608860068
2025-07-15 15:56:11.664656,280.5145071229981,153.0346347691734
2025-07-15 15:56:11.664878,477.5675484366317,-10.218978196874104
2025-07-15 15:56:11.665100,-490.6131764812791,-253.3212763407132
2025-07-15 15:56:11.665323,287.5468037134451,-222.48441703344326
2025-07-15 15:56:11.665545,84.41023212152527,-305.9231742842974
2025-07-15 15:56:11.665767,115.36151340494621,-229.64443609044804
2025-07-15 15:56:11.665989,95.59685619029551,144.98151517084034
2025-07-15 15:56:11.666211,384.23338257138823,425.38183655351907
2025-07-15 15:56:11.666434,443.41029963745245,351.11838590298487
2025-07-15 15:56:11.666656,185.67569550211795,-298.8752925648997
2025-07-15 15:56:11.666878,-77.28606114594629,385.9046130270816
2025-07-15 15:56:11.667100,283.10021703173106,115.92388328360971
2025-07-15 15:56:11.667323,365.6117303399633,308.70899686474854
2025-07-15 15:56:11.667545,-153.5759595121542,-333.04965163737364
2025-07-15 15:56:11.667767,25.028735889567656,477.60932717568494
2025-07-15 15:56:11.667989,-85.5688472133478,453.36941449735207
2025-07-15 15:56:11.684212,-349.19133752081655,-335.0186265493405
2025-07-15 15:56:11.684612,159.96805489440305,158.91733277938079
2025-07-15 15:56:11.685012,11.400742333200014,423.75716800415944
2025-07-15 15:56:11.685412,227.88285198787685,-466.183525374455
2025-07-15 15:56:11.685812,418.331324923823,41.92215140573785
2025-07-15 15:56:11.686212,-249.71711224631267,-136.78832949806764
2025-07-15 15:56:11.686612,-78.9381313263886,-228.86811370305702
2025-07-15 15:56:11.687012,184.25891245441505,113.94635358864707
2025-07-15 15:56:11.687412,-38.6379951007043,-297.29592759396564
2025-07-15 15:56:11.687812,17.721698713467276,236.14636045062082
2025-07-15 15:56:11.704212,361.0522005273259,-334.28366044094935
2025-07-15 15:56:11.704783,-158.17547266450424,244.21654899683665
2025-07-15 15:56:11.705354,152.86243985309602,447.11227353517575
2025-07-15 15:56:11.705926,-278.62591738559604,-187.03712636444436
2025-07-15 15:56:11.706497,-43.78792879470075,-96.90524143287428
2025-07-15 15:56:11.707069,-375.2855557587592,302.9175990579454
2025-07-15 15:56:11.707640,371.31273554725146,-269.9176283117364
2025-07-15 15:56:11.724212,403.57349080497545,-228.83970506294548
2025-07-15 15:56:11.724575,-215.2533302495708,355.7138121943317
2025-07-15 15:56:11.724939,-37.48259711338221,-74.52340706393312
2025-07-15 15:56:11.725302,-483.4696262635191,-33.00718228052
2025-07-15 15:56:11.725666,398.952562222433,143.08863120130707
2025-07-15 15:56:11.726030,423.7121966401845,-270.02411418060626
2025-07-15 15:56:11.726393,-298.33948576416236,-156.26095280498186
2025-07-15 15:56:11.726757,161.69184021053593,-257.89211316890623
2025-07-15 15:56:11.727121,-423.4035585638237,-400.4621828607227
2025-07-15 15:56:11.727484,-405.85434419476985,232.90392050719151
2025-07-15 15:56:11.727848,415.5234545537304,84.45097700492386
2025-07-15 15:56:11.744212,492.72836385634105,112.55108196043841
2025-07-15 15:56:11.745012,110.05669769634551,77.39978583176071
2025-07-15 15:56:11.745812,403.19900083991524,400.2971199527159
2025-07-15 15:56:11.746612,49.24045690104629,-173.12796338023304
2025-07-15 15:56:11.747412,408.10872623794637,-240.1151171325011
2025-07-15 15:56:11.764212,-357.0237644199441,172.98505111488873
2025-07-15 15:56:11.764412,377.4140261323988,-314.3042808669092
2025-07-15 15:56:11.764612,-475.7812527791376,7.284736870893596
2025-07-15 15:56:11.764812,338.7734041299202,-358.3818113145295
2025-07-15 15:56:11.765012,-292.9344476900886,18.797619333791317
2025-07-15 15:56:11.765212,476.46819809059525,-13.148203574666184
2025-07-15 15:56:11.765412,90.28934024111675,-414.95317974881493
2025-07-15 15:56:11.765612,438.2718956131414,-119.04148726197417
2025-07-15 15:56:11.765812,-348.00587152585626,-110.71192256037921
2025-07-15 15:56:11.766012,492.984197969039,-181.3092772340429
2025-07-15 15:56:11.766212,-276.69034496906704,-211.6143389750975
2025-07-15 15:56:11.766412,-212.53984794041259,-464.6987433038612
2025-07-15 15:56:11.766612,101.8817133301352,-70.2165765264723
2025-07-15 15:56:11.766812,86.84445586013885,203.1762089615504
2025-07-15 15:56:11.767012,433.4979754013568,61.97703990337391
2025-07-15 15:56:11.767212,187.19298272421975,-271.7519529446279
2025-07-15 15:56:11.767412,-452.9194283018155,28.77164212288028
2025-07-15 15:56:11.767612,409.1683278269421,104.49488985242021
2025-07-15 15:56:11.767812,-273.817711481708,-31.602650944729476
2025-07-15 15:56:11.768012,39.68572038672585,-112.54201339682066
2025-07-15 15:56:11.784212,181.06562022739388,326.7121845635718
2025-07-15 15:56:11.784545,90.80060238231363,-485.5491676648296
2025-07-15 15:56:11.784878,-65.51504173098698,444.71133094940717
2025-07-15 15:56:11.785211,369.8687406207897,478.77322285191974
2025-07-15 15:56:11.785545,-238.31563117306655,-485.66033638107706
2025-07-15 15:56:11.785878,-206.23149846040099,329.4200768286936
2025-07-15 15:56:11.786211,375.5009435588572,-313.24904134470256
2025-07-15 15:56:11.786545,-294.3586970483252,54.331656833060606
2025-07-15 15:56:11.786878,-49.78408856389359,-117.64906026096577
2025-07-15 15:56:11.787211,-476.5344811167057,15.228112885027485
2025-07-15 15:56:11.787545,272.3979979028186,-78.03181713758045
2025-07-15 15:56:11.787878,-362.2095400423766,323.6381214636275
2025-07-15 15:56:11.804212,240.05962443330134,-134.8864671452199
2025-07-15 15:56:11.805012,59.152613130973236,-389.66569513527816
2025-07-15 15:56:11.805812,-56.02124679477225,-448.8750633497465
2025-07-15 15:56:11.806612,-351.4336453288269,215.36700457986342
2025-07-15 15:56:11.807412,243.83627095975487,-220.1494180236594
2025-07-15 15:56:11.824212,-79.22502977034287,-274.086796126817
2025-07-15 15:56:11.824545,483.8604733830855,-159.26803957489665
2025-07-15 15:56:11.824878,107.62565432763051,28.908054822827808
2025-07-15 15:56:11.825211,-337.2858274771089,-195.18858157271677
2025-07-15 15:56:11.825545,-198.73631545719496,-102.23896609854933
2025-07-15 15:56:11.825878,138.4168175543016,243.73628394258492
2025-07-15 15:56:11.826211,489.8988589813871,-318.3382357985017
2025-07-15 15:56:11.826545,190.1266299410679,-226.63270410152825
2025-07-15 15:56:11.826878,417.0825372125295,-439.1591243486117
2025-07-15 15:56:11.827211,198.4885156234037,251.8589934609039
2025-07-15 15:56:11.827545,436.75406143914734,-79.9069859975242
2025-07-15 15:56:11.827878,150.6352507328047,261.24473204697745
2025-07-15 15:56:11.844212,-98.34959114036025,223.30046546061465
2025-07-15 15:56:11.844478,-162.37216837222354,247.8050302244318
2025-07-15 15:56:11.844745,-488.1266473804057,-297.30891753103185
2025-07-15 15:56:11.845011,-183.2147494322138,398.2920606686557
2025-07-15 15:56:11.845278,-369.1360025234426,444.9714601637438
2025-07-15 15:56:11.845545,-302.93088947337185,35.12974643602888
2025-07-15 15:56:11.845811,17.55973876904784,-110.58532226193819
2025-07-15 15:56:11.846078,-183.01774530751447,206.66263505520976
2025-07-15 15:56:11.846345,-67.98626927397567,-31.300274794480515
2025-07-15 15:56:11.846611,-212.33299515435255,-33.05113246054634
2025-07-15 15:56:11.846878,490.9263286061314,486.20927137521517
2025-07-15 15:56:11.847145,-110.07668024893815,71.69132394896894
2025-07-15 15:56:11.847411,-256.056954246853,370.910150623958
2025-07-15 15:56:11.847678,-302.46391009168974,-278.92883132677304
2025-07-15 15:56:11.847945,22.84643369806156,471.67785630942035
2025-07-15 15:57:17.833803,239.3321533203125,227.75692749023438
2025-07-15 15:57:17.834303,240.19935607910156,228.2863006591797
2025-07-15 15:57:17.834803,125.63125610351562,227.7725067138672
2025-07-15 15:57:17.835303,-90.889404296875,228.29495239257812
2025-07-15 15:57:17.835803,-90.99671936035156,228.89645385742188
2025-07-15 15:57:17.836303,-35.598079681396484,228.690185546875
2025-07-15 15:57:17.836803,30.900943756103516,228.2378387451172
2025-07-15 15:57:17.837303,73.20951080322266,226.96762084960938
2025-07-15 15:57:17.887189,98.9315414428711,226.44546508789062
2025-07-15 15:57:17.887689,107.79615783691406,226.6517333984375
2025-07-15 15:57:17.888189,102.88784790039062,226.59634399414062
2025-07-15 15:57:17.888689,91.31405639648438,226.28564453125
2025-07-15 15:57:17.889189,86.48248291015625,226.1209259033203
2025-07-15 15:57:17.889689,97.56555938720703,225.44729614257812
2025-07-15 15:57:17.890189,122.48011779785156,224.48289489746094
2025-07-15 15:57:17.890689,154.17642211914062,223.85284423828125
2025-07-15 15:57:17.890322,179.9899139404297,223.16392517089844
2025-07-15 15:57:17.890822,185.81503295898438,223.23951721191406
2025-07-15 15:57:17.891322,181.10231018066406,223.77349853515625
2025-07-15 15:57:17.891822,167.61700439453125,224.57838439941406
2025-07-15 15:57:17.892322,152.7801513671875,225.1971893310547
2025-07-15 15:57:17.892822,145.51287841796875,224.6167449951172
2025-07-15 15:57:17.893322,161.46994018554688,223.70773315429688
2025-07-15 15:57:17.893822,188.20167541503906,223.4443359375
2025-07-15 15:57:17.890748,206.91348266601562,223.2447052001953
2025-07-15 15:57:17.891248,214.95533752441406,223.23403930664062
2025-07-15 15:57:17.891748,216.44248962402344,224.13180541992188
2025-07-15 15:57:17.892248,207.06869506835938,224.9179229736328
2025-07-15 15:57:17.892748,190.1907958984375,224.93408203125
2025-07-15 15:57:17.893248,177.45065307617188,224.6026153564453
2025-07-15 15:57:17.893748,187.68643188476562,224.6225128173828
2025-07-15 15:57:17.894248,203.94091796875,224.28961181640625
2025-07-15 15:57:17.892711,215.06900024414062,223.74696350097656
2025-07-15 15:57:17.893211,221.70361328125,224.1173858642578
2025-07-15 15:57:17.893711,225.2029571533203,225.0015869140625
2025-07-15 15:57:17.894211,224.4803009033203,225.5347137451172
2025-07-15 15:57:17.894711,219.84661865234375,225.87167358398438
2025-07-15 15:57:17.895211,213.26048278808594,226.0548553466797
2025-07-15 15:57:17.895711,210.72265625,225.9579315185547
2025-07-15 15:57:17.896211,213.6182098388672,225.7842559814453
2025-07-15 15:57:17.910059,218.69671630859375,225.35643005371094
2025-07-15 15:57:17.910559,225.18478393554688,225.09996032714844
2025-07-15 15:57:17.911059,229.5888214111328,225.44384765625
2025-07-15 15:57:17.911559,230.01144409179688,226.50344848632812
2025-07-15 15:57:17.912059,226.57095336914062,226.9180145263672
2025-07-15 15:57:17.912559,221.18203735351562,227.12484741210938
2025-07-15 15:57:17.913059,216.87838745117188,226.8698272705078
2025-07-15 15:57:17.913559,216.4445037841797,225.9873504638672
2025-07-15 15:57:17.940554,220.406005859375,225.99195861816406
2025-07-15 15:57:17.941054,226.48757934570312,226.0312042236328
2025-07-15 15:57:17.941554,231.72332763671875,226.2213134765625
2025-07-15 15:57:17.942054,233.28115844726562,226.57240295410156
2025-07-15 15:57:17.942554,230.7165069580078,227.10897827148438
2025-07-15 15:57:17.943054,225.5468292236328,227.81895446777344
2025-07-15 15:57:17.943554,220.86729431152344,227.50738525390625
2025-07-15 15:57:17.944054,219.38677978515625,226.8314666748047
2025-07-15 15:57:17.943662,221.8092041015625,226.6326904296875
2025-07-15 15:57:17.944162,227.036865234375,226.47315979003906
2025-07-15 15:57:17.944662,232.72610473632812,226.36065673828125
2025-07-15 15:57:17.945162,235.68222045898438,227.1392822265625
2025-07-15 15:57:17.945662,234.34075927734375,227.51834106445312
2025-07-15 15:57:17.946162,229.73709106445312,227.7205810546875
2025-07-15 15:57:17.946662,224.35047912597656,228.11666870117188
2025-07-15 15:57:17.947162,221.4881134033203,227.89222717285156
2025-07-15 15:57:17.950092,222.7061004638672,227.068603515625
2025-07-15 15:57:17.950592,227.4254608154297,226.90646362304688
2025-07-15 15:57:17.951092,233.32211303710938,227.20274353027344
2025-07-15 15:57:17.951592,237.16908264160156,227.33053588867188
2025-07-15 15:57:17.952092,236.92762756347656,227.87635803222656
2025-07-15 15:57:17.952592,232.8426513671875,228.7651824951172
2025-07-15 15:57:17.953092,227.2295684814453,228.7493133544922
2025-07-15 15:57:17.953592,223.2931671142578,228.3728485107422
2025-07-15 15:57:17.976432,223.20460510253906,227.9398193359375
2025-07-15 15:57:17.976932,226.9396514892578,227.3994903564453
2025-07-15 15:57:17.977432,232.86544799804688,227.2938995361328
2025-07-15 15:57:17.977932,237.539794921875,227.146484375
2025-07-15 15:57:17.978432,238.4681396484375,227.91529846191406
2025-07-15 15:57:17.978932,235.34239196777344,228.63710021972656
2025-07-15 15:57:17.979432,229.6514129638672,228.44265747070312
2025-07-15 15:57:17.979932,224.68569946289062,228.048583984375
2025-07-15 15:57:17.977405,223.17344665527344,227.61614990234375
2025-07-15 15:57:17.977905,225.97898864746094,227.4580535888672
2025-07-15 15:57:17.978405,231.56668090820312,227.52671813964844
2025-07-15 15:57:17.978905,237.12466430664062,227.7240447998047
2025-07-15 15:57:17.979405,239.59324645996094,228.2352294921875
2025-07-15 15:57:17.979905,237.91107177734375,228.8892364501953
2025-07-15 15:57:17.980405,232.78611755371094,229.20858764648438
2025-07-15 15:57:17.980905,227.1620635986328,229.09463500976562
2025-07-15 15:57:17.988313,224.3072052001953,228.75364685058594
2025-07-15 15:57:17.988813,225.38873291015625,227.81057739257812
2025-07-15 15:57:17.989313,230.2156982421875,227.53018188476562
2025-07-15 15:57:17.989813,236.2038116455078,227.79904174804688
2025-07-15 15:57:17.990313,239.8352813720703,228.20437622070312
2025-07-15 15:57:17.990813,239.38092041015625,228.56785583496094
2025-07-15 15:57:17.991313,235.1964111328125,228.8344268798828
2025-07-15 15:57:17.991813,229.25416564941406,229.02020263671875
2025-07-15 15:57:18.011341,224.8432159423828,228.46630859375
2025-07-15 15:57:18.011841,225.0304412841797,228.10916137695312
2025-07-15 15:57:18.012341,228.9821319580078,227.71365356445312
2025-07-15 15:57:18.012841,234.6531982421875,227.63143920898438
2025-07-15 15:57:18.013341,239.2228240966797,227.97877502441406
2025-07-15 15:57:18.013841,240.18406677246094,228.28399658203125
2025-07-15 15:57:18.014341,237.16360473632812,228.9085693359375
2025-07-15 15:57:18.014841,231.51821899414062,229.45294189453125
2025-07-15 15:57:18.022849,226.68722534179688,229.4200439453125
2025-07-15 15:57:18.023349,225.29209899902344,228.6365203857422
2025-07-15 15:57:18.023849,227.83193969726562,228.08897399902344
2025-07-15 15:57:18.024349,233.0440216064453,227.67527770996094
2025-07-15 15:57:18.024849,238.16119384765625,227.5994110107422
2025-07-15 15:57:18.025349,240.47947692871094,228.30331420898438
2025-07-15 15:57:18.025849,238.60806274414062,229.27291870117188
2025-07-15 15:57:18.026349,233.4202117919922,229.5227508544922
2025-07-15 15:57:18.043418,228.05291748046875,229.23513793945312
2025-07-15 15:57:18.043918,225.50643920898438,229.06204223632812
2025-07-15 15:57:18.044418,227.04176330566406,228.86961364746094
2025-07-15 15:57:18.044918,231.895263671875,228.1775360107422
2025-07-15 15:57:18.045418,237.5395050048828,228.02493286132812
2025-07-15 15:57:18.045918,240.88363647460938,228.55343627929688
2025-07-15 15:57:18.046418,240.31936645507812,228.86009216308594
2025-07-15 15:57:18.046918,235.8957061767578,229.6626739501953
2025-07-15 15:57:18.066042,229.81411743164062,230.08212280273438
2025-07-15 15:57:18.066542,226.03062438964844,229.7633514404297
2025-07-15 15:57:18.067042,226.3439178466797,228.95761108398438
2025-07-15 15:57:18.067542,230.2930145263672,228.3396759033203
2025-07-15 15:57:18.068042,236.13284301757812,228.4143829345703
2025-07-15 15:57:18.068542,240.3681182861328,228.4397735595703
2025-07-15 15:57:18.069042,240.83200073242188,228.6904754638672
2025-07-15 15:57:18.069542,237.36236572265625,229.4359130859375
2025-07-15 15:57:18.071309,231.6318817138672,230.02125549316406
2025-07-15 15:57:18.071809,226.857421875,229.41226196289062
2025-07-15 15:57:18.072309,225.5341339111328,228.4683380126953
2025-07-15 15:57:18.072809,228.56700134277344,228.31370544433594
2025-07-15 15:57:18.073309,234.2646026611328,228.048583984375
2025-07-15 15:57:18.073809,239.51881408691406,227.9672393798828
2025-07-15 15:57:18.074309,241.45657348632812,228.1824493408203
2025-07-15 15:57:18.074809,239.2412872314453,228.841064453125
2025-07-15 15:57:18.086699,233.7730255126953,229.51611328125
2025-07-15 15:57:18.087199,228.05320739746094,229.81268310546875
2025-07-15 15:57:18.087699,225.6149139404297,229.35398864746094
2025-07-15 15:57:18.088199,227.40988159179688,228.77066040039062
2025-07-15 15:57:18.088699,232.3955078125,228.29322814941406
2025-07-15 15:57:18.089199,238.25927734375,228.02146911621094
2025-07-15 15:57:18.089699,241.39166259765625,228.07772827148438
2025-07-15 15:57:18.090199,240.42494201660156,228.87538146972656
2025-07-15 15:57:18.109090,235.8582000732422,229.5086212158203
2025-07-15 15:57:18.109590,229.97393798828125,229.5539093017578
2025-07-15 15:57:18.110090,225.93109130859375,229.09146118164062
2025-07-15 15:57:18.110590,226.44921875,228.62498474121094
2025-07-15 15:57:18.111090,230.65650939941406,228.2384033203125
2025-07-15 15:57:18.111590,236.3843994140625,227.65133666992188
2025-07-15 15:57:18.112090,240.6580352783203,228.07569885253906
2025-07-15 15:57:18.112590,240.98028564453125,228.72537231445312
2025-07-15 15:57:18.123598,237.45266723632812,229.05223083496094
2025-07-15 15:57:18.124098,231.74063110351562,229.6280517578125
2025-07-15 15:57:18.124598,227.19639587402344,229.7111358642578
2025-07-15 15:57:18.125098,226.23226928710938,229.1690673828125
2025-07-15 15:57:18.125598,229.16531372070312,228.4051513671875
2025-07-15 15:57:18.126098,234.62550354003906,227.76962280273438
2025-07-15 15:57:18.126598,239.56092834472656,228.01858520507812
2025-07-15 15:57:18.127098,241.376953125,228.65325927734375
2025-07-15 15:57:18.143525,238.9147186279297,228.8993377685547
2025-07-15 15:57:18.144025,233.60916137695312,229.48121643066406
2025-07-15 15:57:18.144525,228.34024047851562,229.54092407226562
2025-07-15 15:57:18.145025,226.25852966308594,229.07127380371094
2025-07-15 15:57:18.145525,228.24562072753906,228.93394470214844
2025-07-15 15:57:18.146025,233.30105590820312,228.56179809570312
2025-07-15 15:57:18.146525,238.7949981689453,228.49574279785156
2025-07-15 15:57:18.147025,241.6980438232422,228.70864868164062
2025-07-15 15:57:18.167857,240.55938720703125,228.99366760253906
2025-07-15 15:57:18.168357,235.79849243164062,229.45294189453125
2025-07-15 15:57:18.168857,229.80287170410156,229.5028533935547
2025-07-15 15:57:18.169357,226.29833984375,229.29714965820312
2025-07-15 15:57:18.169857,227.0628204345703,228.81048583984375
2025-07-15 15:57:18.170357,231.37742614746094,228.20176696777344
2025-07-15 15:57:18.170857,237.26486206054688,228.4368896484375
2025-07-15 15:57:18.171357,241.09307861328125,228.5817108154297
2025-07-15 15:57:18.172369,241.0278778076172,228.70114135742188
2025-07-15 15:57:18.172869,237.074462890625,229.2172393798828
2025-07-15 15:57:18.173369,231.1278839111328,229.66439819335938
2025-07-15 15:57:18.173869,226.854248046875,229.75872802734375
2025-07-15 15:57:18.174369,226.118896484375,228.83413696289062
2025-07-15 15:57:18.174869,229.4062042236328,227.86048889160156
2025-07-15 15:57:18.175369,235.14419555664062,227.6470184326172
2025-07-15 15:57:18.175869,240.1505889892578,227.62393188476562
2025-07-15 15:57:18.184635,241.640625,228.27764892578125
2025-07-15 15:57:18.185135,238.82615661621094,228.97549438476562
2025-07-15 15:57:18.185635,233.15220642089844,229.60382080078125
2025-07-15 15:57:18.186135,227.9654998779297,229.86373901367188
2025-07-15 15:57:18.186635,225.9778289794922,229.1272430419922
2025-07-15 15:57:18.187135,228.14031982421875,228.41323852539062
2025-07-15 15:57:18.187635,233.391357421875,228.0771484375
2025-07-15 15:57:18.188135,239.01136779785156,227.92425537109375
2025-07-15 15:57:18.210485,241.7211151123047,228.7484588623047
2025-07-15 15:57:18.210985,240.32830810546875,229.2019500732422
2025-07-15 15:57:18.211485,235.4667205810547,229.4327392578125
2025-07-15 15:57:18.211985,229.5057373046875,229.32745361328125
2025-07-15 15:57:18.212485,225.97032165527344,228.95327758789062
2025-07-15 15:57:18.212985,227.10321044921875,228.70143127441406
2025-07-15 15:57:18.213485,231.80006408691406,228.13052368164062
2025-07-15 15:57:18.213985,237.39785766601562,228.0673370361328
2025-07-15 15:57:18.223138,240.96701049804688,228.22427368164062
2025-07-15 15:57:18.223638,240.88162231445312,229.15867614746094
2025-07-15 15:57:18.224138,236.9160919189453,229.48207092285156
2025-07-15 15:57:18.224638,231.19712829589844,229.62747192382812
2025-07-15 15:57:18.225138,227.03311157226562,229.689208984375
2025-07-15 15:57:18.225638,226.5138397216797,229.15724182128906
2025-07-15 15:57:18.226138,229.87672424316406,228.64459228515625
2025-07-15 15:57:18.226638,235.52471923828125,228.18215942382812
2025-07-15 15:57:18.243403,240.1024169921875,228.13253784179688
2025-07-15 15:57:18.243903,241.376953125,228.95269775390625
2025-07-15 15:57:18.244403,238.52381896972656,229.3037872314453
2025-07-15 15:57:18.244903,233.07632446289062,229.60757446289062
2025-07-15 15:57:18.245403,228.0162811279297,229.55303955078125
2025-07-15 15:57:18.245903,226.34219360351562,228.94261169433594
2025-07-15 15:57:18.246403,228.74354553222656,228.76634216308594
2025-07-15 15:57:18.246903,233.9697723388672,228.2277374267578
2025-07-15 15:57:18.270360,239.0941619873047,228.035888671875
2025-07-15 15:57:18.270860,241.55783081054688,228.5453643798828
2025-07-15 15:57:18.271360,240.0600128173828,228.90394592285156
2025-07-15 15:57:18.271860,235.02967834472656,229.56198120117188
2025-07-15 15:57:18.272360,229.19186401367188,229.7062225341797
2025-07-15 15:57:18.272860,226.1001434326172,228.95213317871094
2025-07-15 15:57:18.273360,227.28958129882812,228.3500518798828
2025-07-15 15:57:18.273860,231.91488647460938,228.07801818847656
2025-07-15 15:57:18.275454,237.87039184570312,228.1031036376953
2025-07-15 15:57:18.275954,241.3287811279297,228.3722686767578
2025-07-15 15:57:18.276454,240.76651000976562,229.0499267578125
2025-07-15 15:57:18.276954,236.4634552001953,229.50515747070312
2025-07-15 15:57:18.277454,230.56967163085938,229.98316955566406
2025-07-15 15:57:18.277954,226.7290496826172,229.44456481933594
2025-07-15 15:57:18.278454,226.6315460205078,228.790283203125
2025-07-15 15:57:18.278954,230.2638702392578,228.5300750732422
2025-07-15 15:57:18.287068,235.93234252929688,227.97531127929688
2025-07-15 15:57:18.287568,240.57986450195312,227.9577178955078
2025-07-15 15:57:18.288068,241.57110595703125,228.53353881835938
2025-07-15 15:57:18.288568,238.3233184814453,229.53343200683594
2025-07-15 15:57:18.289068,232.48521423339844,229.8634490966797
2025-07-15 15:57:18.289568,227.52671813964844,229.6799774169922
2025-07-15 15:57:18.290068,226.0280303955078,229.1330108642578
2025-07-15 15:57:18.290568,228.7510528564453,228.5358428955078
2025-07-15 15:57:18.303000,234.25767517089844,228.16744995117188
2025-07-15 15:57:18.303500,239.68064880371094,228.07339477539062
2025-07-15 15:57:18.304000,241.89968872070312,228.2542724609375
2025-07-15 15:57:18.304500,239.98269653320312,229.0955047607422
2025-07-15 15:57:18.305000,234.817626953125,229.88912963867188
2025-07-15 15:57:18.305500,228.9884796142578,229.506591796875
2025-07-15 15:57:18.306000,225.96743774414062,228.58718872070312
2025-07-15 15:57:18.306500,227.5930633544922,228.4842071533203
2025-07-15 15:57:18.324145,232.50772094726562,228.16224670410156
2025-07-15 15:57:18.324645,238.28927612304688,227.8016357421875
2025-07-15 15:57:18.325145,241.50186157226562,228.22369384765625
2025-07-15 15:57:18.325645,240.6554412841797,228.98876953125
2025-07-15 15:57:18.326145,236.2975616455078,229.8181610107422
2025-07-15 15:57:18.326645,230.52610778808594,229.78787231445312
2025-07-15 15:57:18.327145,226.7255859375,229.35716247558594
2025-07-15 15:57:18.327645,226.6295166015625,228.9114532470703
2025-07-15 15:57:18.343278,230.37522888183594,228.27476501464844
2025-07-15 15:57:18.343778,236.2874755859375,228.10743713378906
2025-07-15 15:57:18.344278,240.6260223388672,227.99781799316406
2025-07-15 15:57:18.344778,241.41964721679688,228.54161071777344
2025-07-15 15:57:18.345278,238.14791870117188,229.31158447265625
2025-07-15 15:57:18.345778,232.45838928222656,229.7281494140625
2025-07-15 15:57:18.346278,227.6527862548828,229.2331085205078
2025-07-15 15:57:18.346778,226.49392700195312,228.75509643554688
2025-07-15 15:57:18.372526,229.2980194091797,228.4888153076172
2025-07-15 15:57:18.373026,234.59030151367188,228.3085174560547
2025-07-15 15:57:18.373526,239.60968017578125,228.22543334960938
2025-07-15 15:57:18.374026,241.63861083984375,229.0528106689453
2025-07-15 15:57:18.374526,239.43630981445312,229.6245880126953
2025-07-15 15:57:18.375026,234.36009216308594,230.08645629882812
2025-07-15 15:57:18.375526,228.9446258544922,229.8726806640625
2025-07-15 15:57:18.376026,226.41258239746094,229.32745361328125
2025-07-15 15:57:18.373629,227.96319580078125,229.04905700683594
2025-07-15 15:57:18.374129,232.91650390625,228.3855438232422
2025-07-15 15:57:18.374629,238.6097869873047,227.9686737060547
2025-07-15 15:57:18.375129,241.51974487304688,228.59469604492188
2025-07-15 15:57:18.375629,240.47543334960938,229.44024658203125
2025-07-15 15:57:18.376129,235.8957061767578,229.71978759765625
2025-07-15 15:57:18.376629,229.86691284179688,229.6283416748047
2025-07-15 15:57:18.377129,226.41171264648438,229.34909057617188
2025-07-15 15:57:18.385201,226.71807861328125,228.40457153320312
2025-07-15 15:57:18.385701,230.9576873779297,227.96925354003906
2025-07-15 15:57:18.386201,236.85838317871094,227.97271728515625
2025-07-15 15:57:18.386701,240.98316955566406,228.24244689941406
2025-07-15 15:57:18.387201,241.3504180908203,228.6137237548828
2025-07-15 15:57:18.387701,237.62171936035156,229.17340087890625
2025-07-15 15:57:18.388201,231.73342895507812,229.77316284179688
2025-07-15 15:57:18.388701,227.197265625,229.41831970214844
2025-07-15 15:57:18.402923,226.0796661376953,228.4888153076172
2025-07-15 15:57:18.403423,229.2227325439453,227.95425415039062
2025-07-15 15:57:18.403923,234.89956665039062,227.8997344970703
2025-07-15 15:57:18.404423,240.06289672851562,228.14060974121094
2025-07-15 15:57:18.404923,241.81141662597656,228.5753631591797
2025-07-15 15:57:18.405423,239.4795684814453,229.32716369628906
2025-07-15 15:57:18.405923,234.0819854736328,229.44717407226562
2025-07-15 15:57:18.406423,228.2701416015625,229.21580505371094
2025-07-15 15:57:18.422853,225.6717529296875,228.5941162109375
2025-07-15 15:57:18.423353,227.94444274902344,228.47265625
2025-07-15 15:57:18.423853,233.13980102539062,228.1383056640625
2025-07-15 15:57:18.424353,238.7825927734375,227.9623260498047
2025-07-15 15:57:18.424853,241.77362060546875,228.752197265625
2025-07-15 15:57:18.425353,240.63034057617188,229.45236206054688
2025-07-15 15:57:18.425853,235.77886962890625,229.73883056640625
2025-07-15 15:57:18.426353,229.87066650390625,229.63929748535156
2025-07-15 15:57:18.442765,226.48728942871094,229.34619140625
2025-07-15 15:57:18.443265,226.85829162597656,228.4810333251953
2025-07-15 15:57:18.443765,230.96461486816406,228.19744873046875
2025-07-15 15:57:18.444265,237.0458984375,228.14955139160156
2025-07-15 15:57:18.444765,240.92201232910156,228.0641632080078
2025-07-15 15:57:18.445265,241.00364685058594,228.57391357421875
2025-07-15 15:57:18.445765,237.45901489257812,229.3998565673828
2025-07-15 15:57:18.446265,231.71640014648438,229.7567138671875
2025-07-15 15:57:18.463557,227.26937866210938,229.40966796875
2025-07-15 15:57:18.464057,226.5585479736328,228.95472717285156
2025-07-15 15:57:18.464557,229.7696990966797,228.3569793701172
2025-07-15 15:57:18.465057,235.2725830078125,228.42967224121094
2025-07-15 15:57:18.465557,240.05279541015625,228.5234375
2025-07-15 15:57:18.466057,241.56936645507812,228.86614990234375
2025-07-15 15:57:18.466557,238.88241577148438,229.130126953125
2025-07-15 15:57:18.467057,233.51512145996094,229.7085418701172
2025-07-15 15:57:18.464735,228.3272705078125,229.69931030273438
2025-07-15 15:57:18.465235,226.36468505859375,228.95472717285156
2025-07-15 15:57:18.465735,228.4729461669922,228.6359405517578
2025-07-15 15:57:18.466235,233.68849182128906,228.34255981445312
2025-07-15 15:57:18.466735,239.26406860351562,228.28024291992188
2025-07-15 15:57:18.467235,241.70323181152344,229.04183959960938
2025-07-15 15:57:18.467735,240.16761779785156,229.58853149414062
2025-07-15 15:57:18.468235,235.4139404296875,229.89576721191406
2025-07-15 15:57:18.484734,229.51698303222656,229.83546447753906
2025-07-15 15:57:18.485234,226.3972930908203,229.44659423828125
2025-07-15 15:57:18.485734,227.30746459960938,228.4853515625
2025-07-15 15:57:18.486234,231.76458740234375,228.0289764404297
2025-07-15 15:57:18.486734,237.60354614257812,227.85789489746094
2025-07-15 15:57:18.487234,241.36338806152344,228.34024047851562
2025-07-15 15:57:18.487734,241.0278778076172,228.92010498046875
2025-07-15 15:57:18.488234,236.9596405029297,229.45437622070312
2025-07-15 15:57:18.502998,230.95797729492188,229.75584411621094
2025-07-15 15:57:18.503498,226.6220245361328,229.24667358398438
2025-07-15 15:57:18.503998,226.23170471191406,228.57997131347656
2025-07-15 15:57:18.504498,229.76536560058594,228.14349365234375
2025-07-15 15:57:18.504998,235.66578674316406,227.7782745361328
2025-07-15 15:57:18.505498,240.53225708007812,228.31198120117188
2025-07-15 15:57:18.505998,241.77362060546875,228.9152069091797
2025-07-15 15:57:18.506498,238.98367309570312,229.33351135253906
2025-07-15 15:57:18.522876,233.4305877685547,229.3998565673828
2025-07-15 15:57:18.523376,227.8662567138672,229.10704040527344
2025-07-15 15:57:18.523876,225.78915405273438,228.7386474609375
2025-07-15 15:57:18.524376,228.231201171875,228.4657440185547
2025-07-15 15:57:18.524876,233.5768585205078,227.64556884765625
2025-07-15 15:57:18.525376,239.26580810546875,227.9487762451172
2025-07-15 15:57:18.525876,241.84228515625,228.59930419921875
2025-07-15 15:57:18.526376,240.19271850585938,229.12550354003906
2025-07-15 15:57:18.546088,235.1577606201172,229.92288208007812
2025-07-15 15:57:18.546588,229.5354461669922,229.93211364746094
2025-07-15 15:57:18.547088,226.558837890625,229.5259246826172
2025-07-15 15:57:18.547588,227.5440216064453,229.05886840820312
2025-07-15 15:57:18.548088,232.02479553222656,228.34544372558594
2025-07-15 15:57:18.548588,237.90443420410156,228.0705108642578
2025-07-15 15:57:18.549088,241.36050415039062,228.4842071533203
2025-07-15 15:57:18.549588,240.8954620361328,228.67027282714844
2025-07-15 15:57:18.564029,236.9302215576172,229.49851989746094
2025-07-15 15:57:18.564529,231.14346313476562,229.78440856933594
2025-07-15 15:57:18.565029,227.04782104492188,229.412841796875
2025-07-15 15:57:18.565529,226.82540893554688,229.19358825683594
2025-07-15 15:57:18.566029,230.45773315429688,228.71182250976562
2025-07-15 15:57:18.566529,236.12794494628906,228.49256896972656
2025-07-15 15:57:18.567029,240.64620971679688,228.6422882080078
2025-07-15 15:57:18.567529,241.56187438964844,229.01731872558594
2025-07-15 15:57:18.565149,238.39602661132812,229.22879028320312
2025-07-15 15:57:18.565649,232.85736083984375,229.7373809814453
2025-07-15 15:57:18.566149,227.90347290039062,229.62718200683594
2025-07-15 15:57:18.566649,226.3880615234375,228.80181884765625
2025-07-15 15:57:18.567149,228.91317749023438,228.52198791503906
2025-07-15 15:57:18.567649,234.36500549316406,228.513916015625
2025-07-15 15:57:18.568149,239.73199462890625,228.58517456054688
2025-07-15 15:57:18.568649,241.86016845703125,228.8898162841797
2025-07-15 15:57:18.587378,239.90365600585938,229.1661834716797
2025-07-15 15:57:18.587878,234.7331085205078,229.61131286621094
2025-07-15 15:57:18.588378,229.0043487548828,229.78297424316406
2025-07-15 15:57:18.588878,226.26890563964844,229.39495849609375
2025-07-15 15:57:18.589378,227.5376739501953,228.702880859375
2025-07-15 15:57:18.589878,232.24490356445312,228.2730255126953
2025-07-15 15:57:18.590378,238.13955688476562,227.8584747314453
2025-07-15 15:57:18.590878,241.60629272460938,228.45130920410156
2025-07-15 15:57:18.603884,240.9635467529297,229.09780883789062
2025-07-15 15:57:18.604384,236.32266235351562,229.2934112548828
2025-07-15 15:57:18.604884,230.305419921875,229.70420837402344
2025-07-15 15:57:18.605384,226.54759216308594,229.45640563964844
2025-07-15 15:57:18.605884,226.452392578125,228.67921447753906
2025-07-15 15:57:18.606384,230.2231903076172,227.8428955078125
2025-07-15 15:57:18.606884,236.2490997314453,227.8036651611328
2025-07-15 15:57:18.607384,240.7769012451172,228.3855438232422
2025-07-15 15:57:18.622855,241.5924530029297,228.82345581054688
2025-07-15 15:57:18.623355,238.3585205078125,229.07415771484375
2025-07-15 15:57:18.623855,232.6337890625,229.62286376953125
2025-07-15 15:57:18.624355,227.45199584960938,229.59747314453125
2025-07-15 15:57:18.624855,226.0000457763672,229.05770874023438
2025-07-15 15:57:18.625355,228.6936492919922,228.41929626464844
2025-07-15 15:57:18.625855,234.088623046875,227.8131866455078
2025-07-15 15:57:18.626355,239.4795684814453,227.94444274902344
2025-07-15 15:57:18.644015,241.60427856445312,228.39794921875
2025-07-15 15:57:18.644515,239.6200714111328,229.37014770507812
2025-07-15 15:57:18.645015,234.4065399169922,229.82220458984375
2025-07-15 15:57:18.645515,228.95558166503906,229.65257263183594
2025-07-15 15:57:18.646015,226.41864013671875,228.97116088867188
2025-07-15 15:57:18.646515,227.86077880859375,228.46170043945312
2025-07-15 15:57:18.647015,232.56253051757812,227.97012329101562
2025-07-15 15:57:18.647515,238.15628051757812,227.8527069091797
2025-07-15 15:57:18.663572,241.3129119873047,228.3786163330078
2025-07-15 15:57:18.664072,240.42494201660156,229.04183959960938
2025-07-15 15:57:18.664572,235.89772033691406,229.5152587890625
2025-07-15 15:57:18.665072,230.22117614746094,229.75469970703125
2025-07-15 15:57:18.665572,226.57095336914062,229.11830139160156
2025-07-15 15:57:18.666072,226.83953857421875,228.59036254882812
2025-07-15 15:57:18.666572,230.85614013671875,228.07196044921875
2025-07-15 15:57:18.667072,236.5935516357422,228.1022491455078
2025-07-15 15:57:18.667640,240.83604431152344,228.39419555664062
2025-07-15 15:57:18.668140,241.32444763183594,228.671142578125
2025-07-15 15:57:18.668640,237.77317810058594,229.2331085205078
2025-07-15 15:57:18.669140,232.06634521484375,229.53977966308594
2025-07-15 15:57:18.669640,227.4191131591797,229.57150268554688
2025-07-15 15:57:18.670140,226.4272918701172,229.36351013183594
2025-07-15 15:57:18.670640,229.37937927246094,228.64691162109375
2025-07-15 15:57:18.671140,234.9904327392578,228.0382080078125
2025-07-15 15:57:18.683375,240.10414123535156,228.1354217529297
2025-07-15 15:57:18.683875,241.7237091064453,228.8254852294922
2025-07-15 15:57:18.684375,239.28253173828125,229.6629638671875
2025-07-15 15:57:18.684875,233.87918090820312,229.84815979003906
2025-07-15 15:57:18.685375,228.3365020751953,229.4168701171875
2025-07-15 15:57:18.685875,226.1414031982422,229.22821044921875
2025-07-15 15:57:18.686375,227.98626708984375,229.00808715820312
2025-07-15 15:57:18.686875,233.0474853515625,228.34832763671875
2025-07-15 15:57:18.703102,238.72518920898438,228.19541931152344
2025-07-15 15:57:18.703602,241.75399780273438,228.93682861328125
2025-07-15 15:57:18.704102,240.72238159179688,229.59371948242188
2025-07-15 15:57:18.704602,235.8639678955078,229.87442016601562
2025-07-15 15:57:18.705102,229.73074340820312,229.50082397460938
2025-07-15 15:57:18.705602,226.07215881347656,229.10704040527344
2025-07-15 15:57:18.706102,226.4783477783203,228.40313720703125
2025-07-15 15:57:18.706602,230.86595153808594,228.21734619140625
2025-07-15 15:57:18.723211,236.8116455078125,228.054931640625
2025-07-15 15:57:18.723711,241.03076171875,228.1648406982422
2025-07-15 15:57:18.724211,241.30482482910156,228.7548065185547
2025-07-15 15:57:18.724711,237.68893432617188,229.45870971679688
2025-07-15 15:57:18.725211,231.8828582763672,229.40966796875
2025-07-15 15:57:18.725711,227.01321411132812,228.99366760253906
2025-07-15 15:57:18.726211,226.05686950683594,228.52978515625
2025-07-15 15:57:18.726711,229.2045440673828,228.1085968017578
2025-07-15 15:57:18.742681,234.8623504638672,227.75808715820312
2025-07-15 15:57:18.743181,239.9639434814453,228.12734985351562
2025-07-15 15:57:18.743681,241.59764099121094,228.9927978515625
2025-07-15 15:57:18.744181,239.15357971191406,229.6280517578125
2025-07-15 15:57:18.744681,233.69483947753906,230.0362548828125
2025-07-15 15:57:18.745181,228.407470703125,229.72036743164062
2025-07-15 15:57:18.745681,226.34219360351562,229.16358947753906
2025-07-15 15:57:18.746181,228.22543334960938,228.92645263671875
2025-07-15 15:57:18.763492,233.1377716064453,228.51564025878906
2025-07-15 15:57:18.763992,238.73326110839844,228.47958374023438
2025-07-15 15:57:18.764492,241.57081604003906,228.6806640625
2025-07-15 15:57:18.764992,240.28964233398438,229.1846466064453
2025-07-15 15:57:18.765492,235.59193420410156,229.78585815429688
2025-07-15 15:57:18.765992,229.8882598876953,229.5253448486328
2025-07-15 15:57:18.766492,226.59634399414062,229.37734985351562
2025-07-15 15:57:18.766992,227.34266662597656,228.922119140625
2025-07-15 15:57:18.767877,231.6702423095703,228.06617736816406
2025-07-15 15:57:18.768377,237.3765106201172,228.06964111328125
2025-07-15 15:57:18.768877,240.96499633789062,228.67979431152344
2025-07-15 15:57:18.769377,240.8602752685547,229.0023193359375
2025-07-15 15:57:18.769877,237.09609985351562,229.23974609375
2025-07-15 15:57:18.770377,231.24588012695312,229.6418914794922
2025-07-15 15:57:18.770877,227.0507049560547,229.7443084716797
2025-07-15 15:57:18.771377,226.5291290283203,229.02308654785156
2025-07-15 15:57:18.783320,229.91827392578125,228.15676879882812
2025-07-15 15:57:18.783820,235.70126342773438,228.14002990722656
2025-07-15 15:57:18.784320,240.5484161376953,228.6001739501953
2025-07-15 15:57:18.784820,241.67929077148438,228.93972778320312
2025-07-15 15:57:18.785320,238.8408660888672,229.47312927246094
2025-07-15 15:57:18.785820,233.2306671142578,229.94480895996094
2025-07-15 15:57:18.786320,227.89395141601562,229.6245880126953
2025-07-15 15:57:18.786820,226.12149047851562,229.412841796875
2025-07-15 15:57:18.805496,228.4432373046875,228.87828063964844
2025-07-15 15:57:18.805996,233.7960968017578,228.2603302001953
2025-07-15 15:57:18.806496,239.29696655273438,227.9326171875
2025-07-15 15:57:18.806996,241.8558349609375,228.37631225585938
2025-07-15 15:57:18.807496,240.31243896484375,228.953857421875
2025-07-15 15:57:18.807996,235.2284393310547,229.45005798339844
2025-07-15 15:57:18.808496,229.25416564941406,229.47775268554688
2025-07-15 15:57:18.808996,226.0257110595703,228.7735595703125
2025-07-15 15:57:18.826391,226.94021606445312,228.1224365234375
2025-07-15 15:57:18.826891,231.37107849121094,227.77423095703125
2025-07-15 15:57:18.827391,237.3277587890625,227.5994110107422
2025-07-15 15:57:18.827891,241.20819091796875,228.38467407226562
2025-07-15 15:57:18.828391,241.01922607421875,229.02020263671875
2025-07-15 15:57:18.828891,237.00840759277344,229.39898681640625
2025-07-15 15:57:18.829391,231.14346313476562,229.55880737304688
2025-07-15 15:57:18.829891,226.60067749023438,229.39466857910156
2025-07-15 15:57:18.843584,226.12437438964844,228.771240234375
2025-07-15 15:57:18.844084,229.7125701904297,228.23696899414062
2025-07-15 15:57:18.844584,235.55125427246094,228.21099853515625
2025-07-15 15:57:18.845084,240.32656860351562,228.35552978515625
2025-07-15 15:57:18.845584,241.52206420898438,228.70114135742188
2025-07-15 15:57:18.846084,238.58497619628906,228.9281768798828
2025-07-15 15:57:18.846584,232.95948791503906,229.54611206054688
2025-07-15 15:57:18.847084,227.9652099609375,229.77374267578125
2025-07-15 15:57:18.863391,226.37074279785156,229.0305938720703
2025-07-15 15:57:18.863891,228.6754608154297,228.1763916015625
2025-07-15 15:57:18.864391,233.80850219726562,227.9718475341797
2025-07-15 15:57:18.864891,239.16021728515625,228.0806121826172
2025-07-15 15:57:18.865391,241.54283142089844,228.46804809570312
2025-07-15 15:57:18.865891,239.82374572753906,229.126953125
2025-07-15 15:57:18.866391,234.817626953125,229.3231201171875
2025-07-15 15:57:18.866891,229.25791931152344,229.38687133789062
2025-07-15 15:57:18.872036,226.4108428955078,229.12060546875
2025-07-15 15:57:18.872536,227.62911987304688,228.68238830566406
2025-07-15 15:57:18.873036,232.32337951660156,228.212158203125
2025-07-15 15:57:18.873536,238.01780700683594,228.4368896484375
2025-07-15 15:57:18.874036,241.2875213623047,228.5753631591797
2025-07-15 15:57:18.874536,240.73362731933594,228.76806640625
2025-07-15 15:57:18.875036,236.64404296875,229.2965850830078
2025-07-15 15:57:18.875536,230.72804260253906,229.4451446533203
2025-07-15 15:57:18.884321,226.7053985595703,229.32542419433594
2025-07-15 15:57:18.884821,226.74923706054688,228.90769958496094
2025-07-15 15:57:18.885321,230.5333251953125,228.10484313964844
2025-07-15 15:57:18.885821,236.40142822265625,228.086669921875
2025-07-15 15:57:18.886321,240.92575073242188,228.3959197998047
2025-07-15 15:57:18.886821,241.59100341796875,228.67257690429688
2025-07-15 15:57:18.887321,238.3492889404297,229.4379425048828
2025-07-15 15:57:18.887821,232.7875518798828,229.89576721191406
2025-07-15 15:57:18.903770,227.67788696289062,229.64334106445312
2025-07-15 15:57:18.904270,226.1249542236328,229.19215393066406
2025-07-15 15:57:18.904770,228.9120330810547,228.3365020751953
2025-07-15 15:57:18.905270,234.4925079345703,227.95655822753906
2025-07-15 15:57:18.905770,239.79287719726562,228.24533081054688
2025-07-15 15:57:18.906270,241.9045867919922,228.87567138671875
2025-07-15 15:57:18.906770,239.8514404296875,229.38803100585938
2025-07-15 15:57:18.907270,234.49740600585938,230.1715545654297
2025-07-15 15:57:18.928297,228.9472198486328,230.1580047607422
2025-07-15 15:57:18.928797,226.1598663330078,229.36668395996094
2025-07-15 15:57:18.929297,227.4032440185547,228.29754638671875
2025-07-15 15:57:18.929797,232.27981567382812,228.05291748046875
2025-07-15 15:57:18.930297,238.04205322265625,228.0583953857422
2025-07-15 15:57:18.930797,241.46580505371094,228.29466247558594
2025-07-15 15:57:18.931297,240.75381469726562,228.82403564453125
2025-07-15 15:57:18.931797,236.3875732421875,229.53082275390625
2025-07-15 15:57:18.943155,230.3867645263672,229.3433074951172
2025-07-15 15:57:18.943655,226.09524536132812,228.73922729492188
2025-07-15 15:57:18.944155,226.17111206054688,228.32351684570312
2025-07-15 15:57:18.944655,230.23704528808594,228.03675842285156
2025-07-15 15:57:18.945155,236.25430297851562,228.15907287597656
2025-07-15 15:57:18.945655,240.62025451660156,228.4149627685547
2025-07-15 15:57:18.946155,241.3031005859375,228.7767333984375
2025-07-15 15:57:18.946655,237.9373321533203,229.0337677001953
2025-07-15 15:57:18.965456,232.23048400878906,229.59141540527344
2025-07-15 15:57:18.965956,227.51806640625,229.5132293701172
2025-07-15 15:57:18.966456,226.395263671875,228.84278869628906
2025-07-15 15:57:18.966956,229.18031311035156,228.68960571289062
2025-07-15 15:57:18.967456,234.6638641357422,228.1449432373047
2025-07-15 15:57:18.967956,239.6812286376953,227.90867614746094
2025-07-15 15:57:18.968456,241.44329833984375,228.61083984375
2025-07-15 15:57:18.968956,239.3540802001953,229.5181427001953
2025-07-15 15:57:18.970762,234.0652618408203,229.66786193847656
2025-07-15 15:57:18.971262,228.67575073242188,229.55044555664062
2025-07-15 15:57:18.971762,226.30728149414062,229.1531982421875
2025-07-15 15:57:18.972262,228.02781677246094,228.50611877441406
2025-07-15 15:57:18.972762,232.9805450439453,228.18994140625
2025-07-15 15:57:18.973262,238.5059356689453,227.85760498046875
2025-07-15 15:57:18.973762,241.51455688476562,228.2984161376953
2025-07-15 15:57:18.974262,240.4592742919922,228.92385864257812
2025-07-15 15:57:18.987597,235.72549438476562,229.38340759277344
2025-07-15 15:57:18.988097,230.03567504882812,229.74949645996094
2025-07-15 15:57:18.988597,226.3626708984375,229.4927520751953
2025-07-15 15:57:18.989097,226.7544403076172,228.54449462890625
2025-07-15 15:57:18.989597,231.06961059570312,228.27389526367188
2025-07-15 15:57:18.990097,236.95474243164062,228.38063049316406
2025-07-15 15:57:18.990597,241.13259887695312,228.61863708496094
2025-07-15 15:57:18.991097,241.3408966064453,229.02886962890625
2025-07-15 15:57:19.002730,237.65835571289062,229.2426300048828
2025-07-15 15:57:19.003230,232.033447265625,229.7206573486328
2025-07-15 15:57:19.003730,227.5281524658203,229.6470947265625
2025-07-15 15:57:19.004230,226.43162536621094,229.04241943359375
2025-07-15 15:57:19.004730,229.31532287597656,228.7700958251953
2025-07-15 15:57:19.005230,235.10813903808594,228.45823669433594
2025-07-15 15:57:19.005730,240.20367431640625,228.3437042236328
2025-07-15 15:57:19.006230,241.83766174316406,228.84048461914062
2025-07-15 15:57:19.028805,239.34426879882812,229.75296020507812
2025-07-15 15:57:19.029305,233.72628784179688,229.9205780029297
2025-07-15 15:57:19.029805,228.17176818847656,229.6796875
2025-07-15 15:57:19.030305,226.04734802246094,229.2458038330078
2025-07-15 15:57:19.030805,227.95166015625,228.2828369140625
2025-07-15 15:57:19.031305,232.95948791503906,227.4390106201172
2025-07-15 15:57:19.031805,238.64498901367188,227.54920959472656
2025-07-15 15:57:19.032305,241.5408172607422,228.44813537597656
2025-07-15 15:57:19.046771,240.3724365234375,229.1560821533203
2025-07-15 15:57:19.047271,235.703857421875,229.7633514404297
2025-07-15 15:57:19.047771,229.8951873779297,229.61940002441406
2025-07-15 15:57:19.048271,226.1128387451172,228.92645263671875
2025-07-15 15:57:19.048771,226.866943359375,228.86961364746094
2025-07-15 15:57:19.049271,231.15443420410156,228.27532958984375
2025-07-15 15:57:19.049771,236.84512329101562,227.67442321777344
2025-07-15 15:57:19.050271,240.9825897216797,228.1163787841797
2025-07-15 15:57:19.063664,240.99557495117188,228.94952392578125
2025-07-15 15:57:19.064164,237.35833740234375,229.5804443359375
2025-07-15 15:57:19.064664,231.5828399658203,229.60179138183594
2025-07-15 15:57:19.065164,227.2428436279297,229.0822296142578
2025-07-15 15:57:19.065664,226.63327026367188,228.8471221923828
2025-07-15 15:57:19.066164,229.84413146972656,228.44178771972656
2025-07-15 15:57:19.066664,235.55731201171875,228.0107879638672
2025-07-15 15:57:19.067164,240.51553344726562,228.46371459960938
2025-07-15 15:57:19.068107,241.5281219482422,228.99366760253906
2025-07-15 15:57:19.068607,238.65133666992188,229.2775421142578
2025-07-15 15:57:19.069107,233.2116241455078,229.3104248046875
2025-07-15 15:57:19.069607,227.97906494140625,229.18551635742188
2025-07-15 15:57:19.070107,226.23631286621094,228.97779846191406
2025-07-15 15:57:19.070607,228.45188903808594,228.80470275878906
2025-07-15 15:57:19.071107,233.63021850585938,228.3988037109375
2025-07-15 15:57:19.071607,239.01568603515625,228.1766815185547
2025-07-15 15:57:19.090045,241.4886016845703,228.3093719482422
2025-07-15 15:57:19.090545,239.96539306640625,228.8546142578125
2025-07-15 15:57:19.091045,235.15199279785156,229.32110595703125
2025-07-15 15:57:19.091545,229.31475830078125,229.5729522705078
2025-07-15 15:57:19.092045,226.09524536132812,229.19041442871094
2025-07-15 15:57:19.092545,227.22438049316406,228.3428497314453
2025-07-15 15:57:19.093045,231.76226806640625,227.92050170898438
2025-07-15 15:57:19.093545,237.62864685058594,227.73875427246094
2025-07-15 15:57:19.103004,241.4147491455078,228.1054229736328
2025-07-15 15:57:19.103504,241.084716796875,228.92356872558594
2025-07-15 15:57:19.104004,237.0487823486328,229.77835083007812
2025-07-15 15:57:19.104504,231.3687744140625,229.83778381347656
2025-07-15 15:57:19.105004,227.15513610839844,229.26744079589844
2025-07-15 15:57:19.105504,226.58624267578125,228.96539306640625
2025-07-15 15:57:19.106004,229.96788024902344,228.49545288085938
2025-07-15 15:57:19.106504,235.854736328125,228.1997528076172
2025-07-15 15:57:19.123194,240.53457641601562,228.45419311523438
2025-07-15 15:57:19.123694,241.67236328125,228.64950561523438
2025-07-15 15:57:19.124194,238.576904296875,229.44168090820312
2025-07-15 15:57:19.124694,232.85679626464844,230.0619354248047
2025-07-15 15:57:19.125194,227.9744415283203,229.93759155273438
2025-07-15 15:57:19.125694,226.33901977539062,229.2235870361328
2025-07-15 15:57:19.126194,228.54248046875,228.6128692626953
2025-07-15 15:57:19.126694,233.75888061523438,228.22802734375
2025-07-15 15:57:19.142779,239.2222442626953,227.5855712890625
2025-07-15 15:57:19.143279,241.51918029785156,228.16830444335938
2025-07-15 15:57:19.143779,239.86268615722656,229.21292114257812
2025-07-15 15:57:19.144279,234.71580505371094,229.56832885742188
2025-07-15 15:57:19.144779,228.88894653320312,229.2114715576172
2025-07-15 15:57:19.145279,225.78280639648438,228.7767333984375
2025-07-15 15:57:19.145779,226.7772216796875,228.57247924804688
2025-07-15 15:57:19.146279,231.39617919921875,227.73846435546875
2025-07-15 15:57:19.163711,237.54296875,227.91819763183594
2025-07-15 15:57:19.164211,241.12942504882812,228.312255859375
2025-07-15 15:57:19.164711,240.82882690429688,228.58660888671875
2025-07-15 15:57:19.165211,236.67462158203125,229.387451171875
2025-07-15 15:57:19.165711,230.87603759765625,229.90672302246094
2025-07-15 15:57:19.166211,226.88050842285156,229.5994873046875
2025-07-15 15:57:19.166711,226.70106506347656,228.84654235839844
2025-07-15 15:57:19.167211,230.30743408203125,228.0188751220703
2025-07-15 15:57:19.167848,236.18995666503906,228.0878143310547
2025-07-15 15:57:19.168348,240.81324768066406,228.4054412841797
2025-07-15 15:57:19.168848,241.521484375,228.80557250976562
2025-07-15 15:57:19.169348,238.12196350097656,229.4970703125
2025-07-15 15:57:19.169848,232.2835693359375,229.66815185546875
2025-07-15 15:57:19.170348,227.39544677734375,229.5839080810547
2025-07-15 15:57:19.170848,226.07562255859375,228.73489379882812
2025-07-15 15:57:19.171348,228.8260498046875,228.43832397460938
2025-07-15 15:57:19.192787,234.1065216064453,228.4334259033203
2025-07-15 15:57:19.193287,239.28599548339844,228.24130249023438
2025-07-15 15:57:19.193787,241.4510955810547,228.3396759033203
2025-07-15 15:57:19.194287,239.4054412841797,229.08309936523438
2025-07-15 15:57:19.194787,234.36297607421875,229.720947265625
2025-07-15 15:57:19.195287,228.87510681152344,229.60150146484375
2025-07-15 15:57:19.195787,226.25535583496094,229.50140380859375
2025-07-15 15:57:19.196287,227.66172790527344,228.72537231445312
2025-07-15 15:57:19.203188,232.4754180908203,227.9392547607422
2025-07-15 15:57:19.203688,238.24745178222656,228.0959014892578
2025-07-15 15:57:19.204188,241.4441680908203,228.6039276123047
2025-07-15 15:57:19.204688,240.6418914794922,229.07098388671875
2025-07-15 15:57:19.205188,236.2366943359375,229.75238037109375
2025-07-15 15:57:19.205688,230.3184051513672,229.56832885742188
2025-07-15 15:57:19.206188,226.5548095703125,229.12290954589844
2025-07-15 15:57:19.206688,226.72817993164062,228.54708862304688
2025-07-15 15:57:19.223159,230.65333557128906,228.08724975585938
2025-07-15 15:57:19.223659,236.51104736328125,227.85328674316406
2025-07-15 15:57:19.224159,240.92835998535156,228.37139892578125
2025-07-15 15:57:19.224659,241.53878784179688,229.28994750976562
2025-07-15 15:57:19.225159,237.96762084960938,229.86431884765625
2025-07-15 15:57:19.225659,232.06690979003906,229.91481018066406
2025-07-15 15:57:19.226159,227.3097686767578,229.6251678466797
2025-07-15 15:57:19.226659,226.02139282226562,229.33177185058594
2025-07-15 15:57:19.245950,228.95616149902344,228.5326690673828
2025-07-15 15:57:19.246450,234.56924438476562,227.82847595214844
2025-07-15 15:57:19.246950,239.7677764892578,228.1919708251953
2025-07-15 15:57:19.247450,241.56851196289062,228.8122100830078
2025-07-15 15:57:19.247950,239.29522705078125,229.25244140625
2025-07-15 15:57:19.248450,234.001220703125,229.71315002441406
2025-07-15 15:57:19.248950,228.41525268554688,229.41110229492188
2025-07-15 15:57:19.249450,225.6529998779297,228.74095153808594
2025-07-15 15:57:19.263340,227.23533630371094,228.5041046142578
2025-07-15 15:57:19.263840,232.14422607421875,227.85011291503906
2025-07-15 15:57:19.264340,238.09483337402344,227.87289428710938
2025-07-15 15:57:19.264840,241.28895568847656,228.23696899414062
2025-07-15 15:57:19.265340,240.5140838623047,229.17454528808594
2025-07-15 15:57:19.265840,236.00994873046875,229.7342071533203
2025-07-15 15:57:19.266340,230.25550842285156,229.9456787109375
2025-07-15 15:57:19.266840,226.6901092529297,229.42149353027344
2025-07-15 15:57:19.266980,226.88916015625,228.77816772460938
2025-07-15 15:57:19.267480,230.8131561279297,228.50555419921875
2025-07-15 15:57:19.267980,236.85147094726562,227.9704132080078
2025-07-15 15:57:19.268480,241.14385986328125,228.1763916015625
2025-07-15 15:57:19.268980,241.521484375,229.0859832763672
2025-07-15 15:57:19.269480,237.960693359375,229.45091247558594
2025-07-15 15:57:19.269980,231.94459533691406,229.61131286621094
2025-07-15 15:57:19.270480,227.11648559570312,229.5966033935547
2025-07-15 15:57:19.282717,226.29257202148438,228.82980346679688
2025-07-15 15:57:19.283217,229.3355255126953,228.0128173828125
2025-07-15 15:57:19.283717,234.83291625976562,227.7274932861328
2025-07-15 15:57:19.284217,239.77296447753906,228.0223388671875
2025-07-15 15:57:19.284717,241.44244384765625,228.86038208007812
2025-07-15 15:57:19.285217,238.853271484375,229.16531372070312
2025-07-15 15:57:19.285717,233.5012664794922,229.4194793701172
2025-07-15 15:57:19.286217,228.2531280517578,229.4581298828125
2025-07-15 15:57:19.304250,226.13648986816406,228.6740264892578
2025-07-15 15:57:19.304750,228.05320739746094,228.0520477294922
2025-07-15 15:57:19.305250,233.16806030273438,227.6542205810547
2025-07-15 15:57:19.305750,238.84922790527344,227.9680938720703
2025-07-15 15:57:19.306250,241.543701171875,228.75277709960938
2025-07-15 15:57:19.306750,239.8684539794922,229.3450469970703
2025-07-15 15:57:19.307250,234.93736267089844,229.5767059326172
2025-07-15 15:57:19.307750,229.36956787109375,229.46246337890625
2025-07-15 15:57:19.323020,226.22332763671875,229.387451171875
2025-07-15 15:57:19.323520,226.9722442626953,228.85000610351562
2025-07-15 15:57:19.324020,231.32406616210938,228.13772583007812
2025-07-15 15:57:19.324520,237.22216796875,227.8838653564453
2025-07-15 15:57:19.325020,241.3033905029297,228.5390167236328
2025-07-15 15:57:19.325520,241.42657470703125,228.9224090576172
2025-07-15 15:57:19.326020,237.47488403320312,229.44371032714844
2025-07-15 15:57:19.326520,231.5637969970703,229.7694091796875
2025-07-15 15:57:19.342897,227.30746459960938,229.44284057617188
2025-07-15 15:57:19.343397,226.43075561523438,229.1693572998047
2025-07-15 15:57:19.343897,229.5322723388672,228.54507446289062
2025-07-15 15:57:19.344397,235.3470001220703,228.28543090820312
2025-07-15 15:57:19.344897,240.23887634277344,228.41958618164062
2025-07-15 15:57:19.345397,241.7623748779297,228.68008422851562
2025-07-15 15:57:19.345897,238.94068908691406,228.92703247070312
2025-07-15 15:57:19.346397,233.23500061035156,229.38226318359375
2025-07-15 15:57:19.363566,227.6954803466797,229.19186401367188
2025-07-15 15:57:19.364066,225.48509216308594,228.64979553222656
2025-07-15 15:57:19.364566,227.78692626953125,228.1028289794922
2025-07-15 15:57:19.365066,233.01747131347656,227.26852416992188
2025-07-15 15:57:19.365566,238.75950622558594,227.28582763671875
2025-07-15 15:57:19.366066,241.51397705078125,227.77769470214844
2025-07-15 15:57:19.366566,240.18722534179688,228.68124389648438
2025-07-15 15:57:19.367066,235.38421630859375,229.5960235595703
2025-07-15 15:57:19.367956,229.7220916748047,229.5152587890625
2025-07-15 15:57:19.368456,226.54788208007812,228.83212280273438
2025-07-15 15:57:19.368956,227.18572998046875,228.31370544433594
2025-07-15 15:57:19.369456,231.38406372070312,227.9744415283203
2025-07-15 15:57:19.369956,237.21495056152344,228.13052368164062
2025-07-15 15:57:19.370456,241.00250244140625,228.15330505371094
2025-07-15 15:57:19.370956,241.04345703125,228.63796997070312
2025-07-15 15:57:19.371456,237.14341735839844,229.65286254882812
2025-07-15 15:57:19.586769,231.3560791015625,229.93991088867188
2025-07-15 15:57:19.587269,227.10061645507812,229.4679412841797
2025-07-15 15:57:19.587769,226.67855834960938,228.57737731933594
2025-07-15 15:57:19.588269,230.1934814453125,228.28370666503906
2025-07-15 15:57:19.588769,235.66981506347656,228.404296875
2025-07-15 15:57:19.589269,240.2209930419922,228.48275756835938
2025-07-15 15:57:19.589769,241.41012573242188,229.0213623046875
2025-07-15 15:57:19.590269,238.36947631835938,229.31129455566406
2025-07-15 15:57:19.588095,232.86370849609375,229.54266357421875
2025-07-15 15:57:19.588595,227.78057861328125,229.74171447753906
2025-07-15 15:57:19.589095,226.25189208984375,229.23744201660156
2025-07-15 15:57:19.589595,228.61056518554688,228.67662048339844
2025-07-15 15:57:19.590095,233.9665985107422,228.2793731689453
2025-07-15 15:57:19.590595,239.44525146484375,228.0223388671875
2025-07-15 15:57:19.591095,241.5696563720703,228.44381713867188
2025-07-15 15:57:19.591595,239.6783447265625,229.11338806152344
2025-07-15 15:57:19.588940,234.77291870117188,229.49822998046875
2025-07-15 15:57:19.589440,229.00405883789062,229.7694091796875
2025-07-15 15:57:19.589940,226.21986389160156,229.3545684814453
2025-07-15 15:57:19.590440,227.47564697265625,228.8352813720703
2025-07-15 15:57:19.590940,232.12576293945312,228.324951171875
2025-07-15 15:57:19.591440,237.967041015625,227.99176025390625
2025-07-15 15:57:19.591940,241.61264038085938,228.31687927246094
2025-07-15 15:57:19.592440,241.2130889892578,229.0181884765625
2025-07-15 15:57:19.589667,236.87136840820312,229.4425506591797
2025-07-15 15:57:19.590167,230.88729858398438,229.67881774902344
2025-07-15 15:57:19.590667,226.72933959960938,229.2884979248047
2025-07-15 15:57:19.591167,226.4846954345703,228.75364685058594
2025-07-15 15:57:19.591667,230.26675415039062,227.90550231933594
2025-07-15 15:57:19.592167,236.0910186767578,227.7107696533203
2025-07-15 15:57:19.592667,240.770263671875,228.1570587158203
2025-07-15 15:57:19.593167,241.7176513671875,228.79605102539062
2025-07-15 15:57:19.590375,238.64498901367188,229.27349853515625
2025-07-15 15:57:19.590875,232.77890014648438,229.5735321044922
2025-07-15 15:57:19.591375,227.171875,228.72740173339844
2025-07-15 15:57:19.591875,225.42941284179688,228.2998504638672
2025-07-15 15:57:19.592375,228.3085174560547,228.29034423828125
2025-07-15 15:57:19.592875,233.84571838378906,227.72259521484375
2025-07-15 15:57:19.593375,239.33619689941406,227.47132873535156
2025-07-15 15:57:19.593875,241.5702362060547,228.20350646972656
2025-07-15 15:57:19.592163,239.74497985839844,229.15464782714844
2025-07-15 15:57:19.592663,234.6246337890625,229.4581298828125
2025-07-15 15:57:19.593163,229.1560821533203,229.2045440673828
2025-07-15 15:57:19.593663,226.48297119140625,229.09463500976562
2025-07-15 15:57:19.594163,227.72605895996094,228.65786743164062
2025-07-15 15:57:19.594663,232.41656494140625,227.8172149658203
2025-07-15 15:57:19.595163,238.30514526367188,227.70643615722656
2025-07-15 15:57:19.595663,241.67323303222656,228.11233520507812
2025-07-15 15:57:19.592898,241.00912475585938,228.922119140625
2025-07-15 15:57:19.593398,236.67520141601562,229.6055450439453
2025-07-15 15:57:19.593898,230.83651733398438,229.75930786132812
2025-07-15 15:57:19.594398,226.96849060058594,229.51785278320312
2025-07-15 15:57:19.594898,227.05099487304688,228.83384704589844
2025-07-15 15:57:19.595398,230.89682006835938,228.39015197753906
2025-07-15 15:57:19.595898,236.65817260742188,227.8815460205078
2025-07-15 15:57:19.596398,241.0330810546875,228.34861755371094
2025-07-15 15:57:19.600197,241.69630432128906,229.04127502441406
2025-07-15 15:57:19.600697,238.34957885742188,229.5224609375
2025-07-15 15:57:19.601197,232.59397888183594,230.1089630126953
2025-07-15 15:57:19.601697,227.7978973388672,229.7344970703125
2025-07-15 15:57:19.602197,226.57009887695312,228.86009216308594
2025-07-15 15:57:19.602697,229.33985900878906,228.5718994140625
2025-07-15 15:57:19.603197,234.8554229736328,228.3148651123047
2025-07-15 15:57:19.603697,239.97288513183594,228.26004028320312
2025-07-15 15:57:19.600881,241.84054565429688,229.0311737060547
2025-07-15 15:57:19.601381,239.6815185546875,229.3554229736328
2025-07-15 15:57:19.601881,234.42384338378906,229.4705352783203
2025-07-15 15:57:19.602381,228.9694366455078,229.68113708496094
2025-07-15 15:57:19.602881,226.48355102539062,229.60987854003906
2025-07-15 15:57:19.603381,228.08204650878906,228.83990478515625
2025-07-15 15:57:19.603881,232.97276306152344,228.2386932373047
2025-07-15 15:57:19.604381,238.6285400390625,228.4683380126953
2025-07-15 15:57:19.601449,241.78919982910156,228.8961639404297
2025-07-15 15:57:19.601949,240.88133239746094,229.28042602539062
2025-07-15 15:57:19.602449,236.2969970703125,229.46563720703125
2025-07-15 15:57:19.602949,230.41619873046875,229.51756286621094
2025-07-15 15:57:19.603449,226.75587463378906,229.15377807617188
2025-07-15 15:57:19.603949,227.0789794921875,228.84596252441406
2025-07-15 15:57:19.604449,231.1241455078125,228.4086151123047
2025-07-15 15:57:19.604949,236.95156860351562,227.85646057128906
2025-07-15 15:57:19.601960,241.1773223876953,228.1636962890625
2025-07-15 15:57:19.602460,241.58062744140625,228.95327758789062
2025-07-15 15:57:19.602960,237.709716796875,229.60670471191406
2025-07-15 15:57:19.603460,231.39559936523438,229.41053771972656
2025-07-15 15:57:19.603960,226.55191040039062,229.18580627441406
2025-07-15 15:57:19.604460,225.60337829589844,228.5372772216797
2025-07-15 15:57:19.604960,228.97174072265625,227.8873291015625
2025-07-15 15:57:19.605460,234.7178192138672,227.78346252441406
2025-07-15 15:57:19.603165,239.75306701660156,228.0390625
2025-07-15 15:57:19.603665,241.34002685546875,228.324951171875
2025-07-15 15:57:19.604165,239.02694702148438,228.84019470214844
2025-07-15 15:57:19.604665,233.7127227783203,229.0669403076172
2025-07-15 15:57:19.605165,228.3832244873047,229.09405517578125
2025-07-15 15:57:19.605665,226.1376495361328,228.664794921875
2025-07-15 15:57:19.606165,227.95166015625,228.11724853515625
2025-07-15 15:57:19.606665,232.99844360351562,227.71307373046875
2025-07-15 15:57:19.603706,238.64930725097656,227.8997344970703
2025-07-15 15:57:19.604206,241.58091735839844,228.42678833007812
2025-07-15 15:57:19.604706,240.47860717773438,228.94029235839844
2025-07-15 15:57:19.605206,235.78146362304688,229.76565551757812
2025-07-15 15:57:19.605706,229.98577880859375,229.70333862304688
2025-07-15 15:57:19.606206,226.5132598876953,228.9930877685547
2025-07-15 15:57:19.606706,227.1075439453125,228.48016357421875
2025-07-15 15:57:19.607206,231.3687744140625,228.03012084960938
2025-07-15 15:57:19.725839,237.1197509765625,227.85067749023438
2025-07-15 15:57:19.726339,241.10202026367188,228.14552307128906
2025-07-15 15:57:19.726839,241.28262329101562,228.64488220214844
2025-07-15 15:57:19.727339,237.56863403320312,229.45379638671875
2025-07-15 15:57:19.727839,231.61802673339844,229.99615478515625
2025-07-15 15:57:19.728339,226.8989715576172,229.45323181152344
2025-07-15 15:57:19.728839,226.12754821777344,228.8323974609375
2025-07-15 15:57:19.729339,229.38311767578125,228.3722686767578
2025-07-15 15:57:19.726927,235.15631103515625,227.9401092529297
2025-07-15 15:57:19.727427,240.15463256835938,227.84808349609375
2025-07-15 15:57:19.727927,241.50762939453125,228.5817108154297
2025-07-15 15:57:19.728427,238.79383850097656,229.22300720214844
2025-07-15 15:57:19.728927,233.26904296875,229.4641876220703
2025-07-15 15:57:19.729427,227.92713928222656,229.59112548828125
2025-07-15 15:57:19.729927,225.84310913085938,228.95933532714844
2025-07-15 15:57:19.730427,227.90896606445312,228.37399291992188
2025-07-15 15:57:19.727649,233.18133544921875,227.77423095703125
2025-07-15 15:57:19.728149,238.7964324951172,227.7237548828125
2025-07-15 15:57:19.728649,241.5370635986328,228.34600830078125
2025-07-15 15:57:19.729149,240.18348693847656,228.91029357910156
2025-07-15 15:57:19.729649,235.2373809814453,229.72959899902344
2025-07-15 15:57:19.730149,229.4379425048828,229.77980041503906
2025-07-15 15:57:19.730649,226.1414031982422,229.2942657470703
2025-07-15 15:57:19.731149,226.83290100097656,228.23495483398438
2025-07-15 15:57:19.728211,231.25828552246094,227.29678344726562
2025-07-15 15:57:19.728711,237.00579833984375,227.11561584472656
2025-07-15 15:57:19.729211,240.73304748535156,227.26419067382812
2025-07-15 15:57:19.729711,240.64073181152344,228.03128051757812
2025-07-15 15:57:19.730211,236.6864471435547,228.72047424316406
2025-07-15 15:57:19.730711,230.79266357421875,228.87249755859375
2025-07-15 15:57:19.731211,226.19967651367188,228.5041046142578
2025-07-15 15:57:19.731711,225.73291015625,227.94357299804688
2025-07-15 15:57:19.729698,229.255615234375,227.42372131347656
2025-07-15 15:57:19.730198,235.13006591796875,226.85511779785156
2025-07-15 15:57:19.730698,240.0023193359375,227.43959045410156
2025-07-15 15:57:19.731198,241.2774200439453,228.44410705566406
2025-07-15 15:57:19.731698,238.5093994140625,229.00318908691406
2025-07-15 15:57:19.732198,232.92054748535156,229.40101623535156
2025-07-15 15:57:19.732698,227.816650390625,229.1177215576172
2025-07-15 15:57:19.733198,226.0375518798828,228.30130004882812
2025-07-15 15:57:19.735294,228.28082275390625,227.77134704589844
2025-07-15 15:57:19.735794,233.49520874023438,227.56507873535156
2025-07-15 15:57:19.736294,238.7194061279297,227.6790313720703
2025-07-15 15:57:19.736794,240.92921447753906,227.7528839111328
2025-07-15 15:57:19.737294,239.32350158691406,228.3563995361328
2025-07-15 15:57:19.737794,234.30123901367188,228.61863708496094
2025-07-15 15:57:19.738294,228.56179809570312,228.31658935546875
2025-07-15 15:57:19.738794,225.62472534179688,228.02810668945312
2025-07-15 15:57:19.743004,226.83636474609375,227.9810791015625
2025-07-15 15:57:19.743504,231.46339416503906,227.33399963378906
2025-07-15 15:57:19.744004,237.00233459472656,226.8054962158203
2025-07-15 15:57:19.744504,240.44456481933594,227.1363983154297
2025-07-15 15:57:19.745004,240.18838500976562,227.52468872070312
2025-07-15 15:57:19.745504,236.1688995361328,227.94415283203125
2025-07-15 15:57:19.746004,230.40696716308594,228.3047637939453
2025-07-15 15:57:19.746504,226.33180236816406,228.18504333496094
2025-07-15 15:57:19.743615,226.1630401611328,227.92425537109375
2025-07-15 15:57:19.744115,229.83114624023438,227.75808715820312
2025-07-15 15:57:19.744615,235.67877197265625,227.5757598876953
2025-07-15 15:57:19.745115,240.32196044921875,227.84030151367188
2025-07-15 15:57:19.745615,241.27194213867188,228.21649169921875
2025-07-15 15:57:19.746115,238.2171630859375,228.48448181152344
2025-07-15 15:57:19.746615,232.56484985351562,229.06723022460938
2025-07-15 15:57:19.747115,227.5728759765625,229.2815704345703
2025-07-15 15:57:19.835774,226.03033447265625,228.56324768066406
2025-07-15 15:57:19.836274,228.55517578125,227.69894409179688
2025-07-15 15:57:19.836774,233.99169921875,227.34323120117188
2025-07-15 15:57:19.837274,239.36158752441406,227.66807556152344
2025-07-15 15:57:19.837774,241.55465698242188,228.48593139648438
2025-07-15 15:57:19.838274,239.7302703857422,228.91087341308594
2025-07-15 15:57:19.838774,234.59117126464844,229.32110595703125
2025-07-15 15:57:19.839274,228.97491455078125,229.663818359375
2025-07-15 15:57:19.836533,226.19996643066406,229.2755126953125
2025-07-15 15:57:19.837033,227.5218048095703,228.7025909423828
2025-07-15 15:57:19.837533,232.2457733154297,228.18792724609375
2025-07-15 15:57:19.838033,237.98521423339844,228.08436584472656
2025-07-15 15:57:19.838533,241.43666076660156,228.23350524902344
2025-07-15 15:57:19.839033,240.78555297851562,228.6722869873047
2025-07-15 15:57:19.839533,236.49517822265625,229.33407592773438
2025-07-15 15:57:19.840033,230.59072875976562,229.13272094726562
2025-07-15 15:57:19.838005,226.23776245117188,228.5372772216797
2025-07-15 15:57:19.838505,226.23313903808594,228.205810546875
2025-07-15 15:57:19.839005,230.10520935058594,227.8847198486328
2025-07-15 15:57:19.839505,235.83888244628906,227.4923858642578
2025-07-15 15:57:19.840005,240.36148071289062,227.4280548095703
2025-07-15 15:57:19.840505,241.1519317626953,228.33592224121094
2025-07-15 15:57:19.841005,237.93386840820312,229.09693908691406
2025-07-15 15:57:19.841505,232.22384643554688,229.11830139160156
2025-07-15 15:57:19.838509,227.3931427001953,228.9948272705078
2025-07-15 15:57:19.839009,226.0609130859375,228.47323608398438
2025-07-15 15:57:19.839509,228.72682189941406,227.96002197265625
2025-07-15 15:57:19.840009,234.290283203125,227.85789489746094
2025-07-15 15:57:19.840509,239.60824584960938,228.26321411132812
2025-07-15 15:57:19.841009,241.60572814941406,228.5548858642578
2025-07-15 15:57:19.841509,239.47006225585938,229.10040283203125
2025-07-15 15:57:19.842009,234.21180725097656,229.6537322998047
2025-07-15 15:57:19.843657,228.43544006347656,229.19271850585938
2025-07-15 15:57:19.844157,225.48422241210938,228.28717041015625
2025-07-15 15:57:19.844657,227.068603515625,227.5541229248047
2025-07-15 15:57:19.845157,231.96507263183594,226.92608642578125
2025-07-15 15:57:19.845657,237.53286743164062,226.51441955566406
2025-07-15 15:57:19.846157,240.6519775390625,226.8888702392578
2025-07-15 15:57:19.846657,239.76719665527344,227.10321044921875
2025-07-15 15:57:19.847157,235.25123596191406,227.904052734375
2025-07-15 15:57:19.844272,229.63670349121094,228.70172119140625
2025-07-15 15:57:19.844772,225.99859619140625,228.32928466796875
2025-07-15 15:57:19.845272,226.2244873046875,227.45834350585938
2025-07-15 15:57:19.845772,230.15280151367188,226.7581787109375
2025-07-15 15:57:19.846272,235.94244384765625,226.3211212158203
2025-07-15 15:57:19.846772,240.09982299804688,226.54441833496094
2025-07-15 15:57:19.847272,240.3133087158203,226.6453857421875
2025-07-15 15:57:19.847772,236.672607421875,227.0625457763672
2025-07-15 15:57:19.856591,230.8939208984375,227.2555389404297
2025-07-15 15:57:19.857091,226.27786254882812,227.4251708984375
2025-07-15 15:57:19.857591,225.14669799804688,227.5572967529297
2025-07-15 15:57:19.858091,228.07656860351562,227.14389038085938
2025-07-15 15:57:19.858591,233.9051513671875,226.63760375976562
2025-07-15 15:57:19.859091,239.02896118164062,226.77664184570312
2025-07-15 15:57:19.859591,240.952880859375,227.76846313476562
2025-07-15 15:57:19.860091,238.6836395263672,228.4239044189453
2025-07-15 15:57:19.972146,233.22836303710938,228.8924102783203
2025-07-15 15:57:19.972646,227.83453369140625,228.89356994628906
2025-07-15 15:57:19.973146,225.68472290039062,228.43313598632812
2025-07-15 15:57:19.973646,227.52642822265625,227.92828369140625
2025-07-15 15:57:19.974146,232.61331176757812,227.5096893310547
2025-07-15 15:57:19.974646,238.2817840576172,227.26620483398438
2025-07-15 15:57:19.975146,241.27252197265625,227.4061279296875
2025-07-15 15:57:19.975646,240.2019500732422,228.28024291992188
2025-07-15 15:57:19.973455,235.57376098632812,229.1595458984375
2025-07-15 15:57:19.973955,229.69960021972656,229.2267608642578
2025-07-15 15:57:19.974455,225.9383087158203,228.47352600097656
2025-07-15 15:57:19.974955,226.65721130371094,228.0771484375
2025-07-15 15:57:19.975455,230.94989013671875,227.92193603515625
2025-07-15 15:57:19.975955,236.68702697753906,227.7050018310547
2025-07-15 15:57:19.976455,240.52273559570312,227.70587158203125
2025-07-15 15:57:19.976955,240.6678466796875,227.9903106689453
2025-07-15 15:57:19.974043,237.04388427734375,228.30966186523438
2025-07-15 15:57:19.974543,231.30328369140625,228.9001922607422
2025-07-15 15:57:19.975043,226.8467559814453,228.87135314941406
2025-07-15 15:57:19.975543,226.1056365966797,228.10801696777344
2025-07-15 15:57:19.976043,229.23281860351562,227.56422424316406
2025-07-15 15:57:19.976543,234.900146484375,227.4739227294922
2025-07-15 15:57:19.977043,239.94749450683594,227.76441955566406
2025-07-15 15:57:19.977543,241.4409942626953,228.17811584472656
2025-07-15 15:57:19.974498,238.90231323242188,229.1272430419922
2025-07-15 15:57:19.974998,233.41905212402344,229.6315155029297
2025-07-15 15:57:19.975498,228.13743591308594,229.56948852539062
2025-07-15 15:57:19.975998,226.0733184814453,228.81134033203125
2025-07-15 15:57:19.976498,228.09791564941406,227.95166015625
2025-07-15 15:57:19.976998,233.27682495117188,227.57373046875
2025-07-15 15:57:19.977498,238.79672241210938,227.5604705810547
2025-07-15 15:57:19.977998,241.52926635742188,227.99261474609375
2025-07-15 15:57:19.974922,240.19329833984375,228.58631896972656
2025-07-15 15:57:19.975422,235.3634490966797,229.08627319335938
2025-07-15 15:57:19.975922,229.62603759765625,229.4076385498047
2025-07-15 15:57:19.976422,226.3528594970703,229.3655242919922
2025-07-15 15:57:19.976922,227.11590576171875,228.78335571289062
2025-07-15 15:57:19.977422,231.51589965820312,228.35438537597656
2025-07-15 15:57:19.977922,237.331787109375,227.95742797851562
2025-07-15 15:57:19.978422,241.11529541015625,227.93637084960938
2025-07-15 15:57:19.975334,240.98634338378906,228.70835876464844
2025-07-15 15:57:19.975834,237.1832275390625,229.6470947265625
2025-07-15 15:57:19.976334,231.35348510742188,229.8885498046875
2025-07-15 15:57:19.976834,227.03887939453125,229.41976928710938
2025-07-15 15:57:19.977334,226.50778198242188,228.7767333984375
2025-07-15 15:57:19.977834,229.80921936035156,228.3310089111328
2025-07-15 15:57:19.978334,235.5108642578125,227.99464416503906
2025-07-15 15:57:19.978834,240.17193603515625,228.46717834472656
2025-07-15 15:57:19.975738,241.24078369140625,228.89645385742188
2025-07-15 15:57:19.976238,238.55555725097656,229.4393768310547
2025-07-15 15:57:19.976738,232.80746459960938,229.8245086669922
2025-07-15 15:57:19.977238,227.63287353515625,229.4451446533203
2025-07-15 15:57:19.977738,225.9936981201172,228.82115173339844
2025-07-15 15:57:19.978238,228.24591064453125,228.34312438964844
2025-07-15 15:57:19.978738,233.54049682617188,227.8492431640625
2025-07-15 15:57:19.979238,238.96145629882812,228.1833038330078
2025-07-15 15:57:19.985588,241.4052276611328,228.6163330078125
2025-07-15 15:57:19.986088,239.84652709960938,228.98068237304688
2025-07-15 15:57:19.986588,234.92062377929688,229.3776397705078
2025-07-15 15:57:19.987088,229.0637664794922,229.70912170410156
2025-07-15 15:57:19.987588,225.6665496826172,228.91751098632812
2025-07-15 15:57:19.988088,227.0276336669922,228.29061889648438
2025-07-15 15:57:19.988588,231.7276611328125,228.0258026123047
2025-07-15 15:57:19.989088,237.54440307617188,228.14695739746094
2025-07-15 15:57:19.989922,241.181640625,228.42160034179688
2025-07-15 15:57:19.990422,240.6508331298828,228.70230102539062
2025-07-15 15:57:19.990922,236.5220184326172,229.04876708984375
2025-07-15 15:57:19.991422,230.75978088378906,229.2913818359375
2025-07-15 15:57:19.991922,226.6927032470703,229.17483520507812
2025-07-15 15:57:19.992422,226.33786010742188,228.37255859375
2025-07-15 15:57:19.992922,229.821044921875,228.04800415039062
2025-07-15 15:57:19.993422,235.72059631347656,227.8717498779297
2025-07-15 15:57:20.009722,240.40618896484375,228.01425170898438
2025-07-15 15:57:20.010222,241.44329833984375,228.9440460205078
2025-07-15 15:57:20.010722,238.46929931640625,229.2818603515625
2025-07-15 15:57:20.011222,232.81178283691406,229.5005340576172
2025-07-15 15:57:20.011722,227.8238525390625,229.71286010742188
2025-07-15 15:57:20.012222,226.26805114746094,229.22821044921875
2025-07-15 15:57:20.012722,228.72422790527344,228.74441528320312
2025-07-15 15:57:20.013222,234.03582763671875,228.0771484375
2025-07-15 15:57:20.023937,239.406005859375,227.9580078125
2025-07-15 15:57:20.024437,241.72140502929688,228.5944061279297
2025-07-15 15:57:20.024937,239.88143920898438,228.88143920898438
2025-07-15 15:57:20.025437,234.7469482421875,229.50140380859375
2025-07-15 15:57:20.025937,229.1884002685547,229.6442108154297
2025-07-15 15:57:20.026437,226.34881591796875,229.18031311035156
2025-07-15 15:57:20.026937,227.59104919433594,228.96798706054688
2025-07-15 15:57:20.027437,232.29396057128906,228.4905548095703
2025-07-15 15:57:20.043508,238.04782104492188,228.1117706298828
2025-07-15 15:57:20.044008,241.46119689941406,228.36419677734375
2025-07-15 15:57:20.044508,240.85421752929688,229.01991271972656
2025-07-15 15:57:20.045008,236.63365173339844,229.4644775390625
2025-07-15 15:57:20.045508,230.79151916503906,229.7284393310547
2025-07-15 15:57:20.046008,226.83059692382812,229.28936767578125
2025-07-15 15:57:20.046508,226.85223388671875,229.1298370361328
2025-07-15 15:57:20.047008,230.5915985107422,228.4368896484375
2025-07-15 15:57:20.091275,236.364501953125,227.83538818359375
2025-07-15 15:57:20.091775,240.8441162109375,228.20639038085938
2025-07-15 15:57:20.092275,241.562744140625,229.0528106689453
2025-07-15 15:57:20.092775,238.21340942382812,229.70680236816406
2025-07-15 15:57:20.093275,232.39781188964844,229.77316284179688
2025-07-15 15:57:20.093775,227.6496124267578,229.26138305664062
2025-07-15 15:57:20.094275,226.38314819335938,228.76229858398438
2025-07-15 15:57:20.094775,229.05511474609375,228.2124481201172
2025-07-15 15:57:20.092600,234.50375366210938,227.84347534179688
2025-07-15 15:57:20.093100,239.74122619628906,228.1224365234375
2025-07-15 15:57:20.093600,241.78256225585938,228.73028564453125
2025-07-15 15:57:20.094100,239.736328125,229.28302001953125
2025-07-15 15:57:20.094600,234.44664001464844,230.0235595703125
2025-07-15 15:57:20.095100,228.73605346679688,229.56227111816406
2025-07-15 15:57:20.095600,225.89561462402344,228.79173278808594
2025-07-15 15:57:20.096100,227.65191650390625,228.61892700195312
2025-07-15 15:57:20.093090,232.36376953125,228.1636962890625
2025-07-15 15:57:20.093590,237.5755615234375,228.3030242919922
2025-07-15 15:57:20.094090,240.7261199951172,228.33187866210938
2025-07-15 15:57:20.094590,240.10646057128906,228.53872680664062
2025-07-15 15:57:20.095090,235.58963012695312,228.98731994628906
2025-07-15 15:57:20.095590,229.77633666992188,229.13502502441406
2025-07-15 15:57:20.096090,226.04360961914062,228.63247680664062
2025-07-15 15:57:20.096590,226.18698120117188,228.15560913085938
2025-07-15 15:57:20.117140,230.1874237060547,227.91529846191406
2025-07-15 15:57:20.117640,235.924560546875,227.8134765625
2025-07-15 15:57:20.118140,240.2279052734375,227.9326171875
2025-07-15 15:57:20.118640,240.97970581054688,228.6391143798828
2025-07-15 15:57:20.119140,237.63441467285156,229.1924285888672
2025-07-15 15:57:20.119640,231.91806030273438,229.84239196777344
2025-07-15 15:57:20.120140,227.24111938476562,229.3528289794922
2025-07-15 15:57:20.120640,226.22247314453125,228.7484588623047
2025-07-15 15:57:20.126365,229.18002319335938,228.3696746826172
2025-07-15 15:57:20.126865,234.52626037597656,227.99118041992188
2025-07-15 15:57:20.127365,239.51101684570312,228.35264587402344
2025-07-15 15:57:20.127865,241.57139587402344,228.59930419921875
2025-07-15 15:57:20.128365,239.3154296875,229.08425903320312
2025-07-15 15:57:20.128865,234.00611877441406,229.701904296875
2025-07-15 15:57:20.129365,228.3079376220703,229.55189514160156
2025-07-15 15:57:20.129865,225.7040557861328,229.28762817382812
2025-07-15 15:57:20.181473,227.57142639160156,228.6973876953125
2025-07-15 15:57:20.181973,232.63262939453125,228.2415771484375
2025-07-15 15:57:20.182473,238.49411010742188,228.26292419433594
2025-07-15 15:57:20.182973,241.39195251464844,228.69796752929688
2025-07-15 15:57:20.183473,240.2394561767578,229.28359985351562
2025-07-15 15:57:20.183973,235.59280395507812,229.7852783203125
2025-07-15 15:57:20.184473,229.64535522460938,229.60035705566406
2025-07-15 15:57:20.184973,226.16822814941406,229.09320068359375
2025-07-15 15:57:20.182110,226.7094268798828,228.82749938964844
2025-07-15 15:57:20.182610,230.9770050048828,228.1094512939453
2025-07-15 15:57:20.183110,236.8814697265625,227.81549072265625
2025-07-15 15:57:20.183610,241.1005859375,228.24533081054688
2025-07-15 15:57:20.184110,241.37753295898438,228.5199737548828
2025-07-15 15:57:20.184610,237.50863647460938,229.09521484375
2025-07-15 15:57:20.185110,231.5966796875,229.3583221435547
2025-07-15 15:57:20.185610,227.08445739746094,229.1722412109375
2025-07-15 15:57:20.187170,226.14283752441406,228.74383544921875
2025-07-15 15:57:20.187670,229.46852111816406,228.30274963378906
2025-07-15 15:57:20.188170,235.16122436523438,227.92626953125
2025-07-15 15:57:20.188670,240.1826171875,228.1729278564453
2025-07-15 15:57:20.189170,241.6790008544922,228.64373779296875
2025-07-15 15:57:20.189670,239.14984130859375,229.58737182617188
2025-07-15 15:57:20.190170,233.7245635986328,229.79710388183594
2025-07-15 15:57:20.190670,228.2023468017578,229.4864044189453
2025-07-15 15:57:20.187827,225.81137084960938,228.9697265625
2025-07-15 15:57:20.188327,228.0266571044922,228.49661254882812
2025-07-15 15:57:20.188827,233.35154724121094,228.4368896484375
2025-07-15 15:57:20.189327,238.93894958496094,228.2086944580078
2025-07-15 15:57:20.189827,241.7427520751953,228.48939514160156
2025-07-15 15:57:20.190327,240.44715881347656,229.15579223632812
2025-07-15 15:57:20.190827,235.62799072265625,229.34793090820312
2025-07-15 15:57:20.191327,229.6404571533203,229.1846466064453
2025-07-15 15:57:20.204008,226.1959228515625,228.73489379882812
2025-07-15 15:57:20.204508,226.8998260498047,228.5046844482422
2025-07-15 15:57:20.205008,231.26693725585938,228.34976196289062
2025-07-15 15:57:20.205508,237.2547607421875,227.99954223632812
2025-07-15 15:57:20.206008,241.1977996826172,228.0390625
2025-07-15 15:57:20.206508,241.18309020996094,228.75912475585938
2025-07-15 15:57:20.207008,237.3352508544922,229.63352966308594
2025-07-15 15:57:20.207508,231.30502319335938,229.6736297607422
2025-07-15 15:57:20.223809,226.73365783691406,229.3040771484375
2025-07-15 15:57:20.224309,226.29458618164062,228.84451293945312
2025-07-15 15:57:20.224809,229.7301788330078,228.19110107421875
2025-07-15 15:57:20.225309,235.21487426757812,227.99319458007812
2025-07-15 15:57:20.225809,239.8811492919922,227.75144958496094
2025-07-15 15:57:20.226309,241.49465942382812,228.3114013671875
2025-07-15 15:57:20.226809,238.85414123535156,229.1956024169922
2025-07-15 15:57:20.227309,233.31317138671875,229.68199157714844
2025-07-15 15:57:20.242337,228.13658142089844,229.2140655517578
2025-07-15 15:57:20.242837,226.2605438232422,228.6942138671875
2025-07-15 15:57:20.243337,228.47439575195312,228.15821838378906
2025-07-15 15:57:20.243837,233.76234436035156,227.79298400878906
2025-07-15 15:57:20.244337,239.01280212402344,227.8195343017578
2025-07-15 15:57:20.244837,241.33511352539062,228.2277374267578
2025-07-15 15:57:20.245337,239.73748779296875,229.04934692382812
2025-07-15 15:57:20.245837,234.57530212402344,229.83172607421875
2025-07-15 15:57:20.262864,228.7998046875,229.7627716064453
2025-07-15 15:57:20.263364,225.73434448242188,229.03521728515625
2025-07-15 15:57:20.263864,226.87847900390625,228.16830444335938
2025-07-15 15:57:20.264364,231.59437561035156,227.8821258544922
2025-07-15 15:57:20.264864,237.52392578125,228.0869598388672
2025-07-15 15:57:20.265364,241.3137664794922,228.47093200683594
2025-07-15 15:57:20.265864,241.1138458251953,228.81192016601562
2025-07-15 15:57:20.266364,236.88522338867188,229.12060546875
2025-07-15 15:57:20.264022,230.83334350585938,229.2426300048828
2025-07-15 15:57:20.264522,226.716064453125,229.00723266601562
2025-07-15 15:57:20.265022,226.39930725097656,228.7224884033203
2025-07-15 15:57:20.265522,230.0175018310547,228.0393524169922
2025-07-15 15:57:20.266022,235.83888244628906,227.41073608398438
2025-07-15 15:57:20.266522,240.60813903808594,227.89511108398438
2025-07-15 15:57:20.267022,241.72486877441406,228.63710021972656
2025-07-15 15:57:20.267522,238.73960876464844,228.934814453125
2025-07-15 15:57:20.286407,232.94102478027344,229.18435668945312
2025-07-15 15:57:20.286907,227.47421264648438,228.9273223876953
2025-07-15 15:57:20.287407,225.56875610351562,228.20697021484375
2025-07-15 15:57:20.287907,228.3174591064453,227.6824951171875
2025-07-15 15:57:20.288407,233.79408264160156,227.64874267578125
2025-07-15 15:57:20.288907,239.2508087158203,227.6147003173828
2025-07-15 15:57:20.289407,241.61264038085938,227.8042449951172
2025-07-15 15:57:20.289907,239.80181884765625,228.5952606201172
2025-07-15 15:57:20.308515,234.68060302734375,229.39610290527344
2025-07-15 15:57:20.309015,229.02684020996094,229.38311767578125
2025-07-15 15:57:20.309515,226.0513916015625,228.4723663330078
2025-07-15 15:57:20.310015,227.10032653808594,227.71971130371094
2025-07-15 15:57:20.310515,231.5891876220703,227.40093994140625
2025-07-15 15:57:20.311015,237.46681213378906,227.27371215820312
2025-07-15 15:57:20.311515,241.13087463378906,227.8818359375
2025-07-15 15:57:20.312015,240.64707946777344,228.15676879882812
2025-07-15 15:57:20.328716,236.51797485351562,228.96597290039062
2025-07-15 15:57:20.329216,230.6712188720703,229.2910919189453
2025-07-15 15:57:20.329716,226.68231201171875,228.8765411376953
2025-07-15 15:57:20.330216,226.66212463378906,228.4873809814453
2025-07-15 15:57:20.330716,230.43495178222656,227.9461669921875
2025-07-15 15:57:20.331216,236.00735473632812,227.9810791015625
2025-07-15 15:57:20.331716,240.20944213867188,227.948486328125
2025-07-15 15:57:20.332216,240.92373657226562,228.3145751953125
2025-07-15 15:57:20.344167,237.75125122070312,228.85317993164062
2025-07-15 15:57:20.344667,232.1266326904297,229.1171417236328
2025-07-15 15:57:20.345167,227.29246520996094,229.02395629882812
2025-07-15 15:57:20.345667,225.99224853515625,228.42247009277344
2025-07-15 15:57:20.346167,228.70518493652344,227.9810791015625
2025-07-15 15:57:20.346667,234.26951599121094,227.39573669433594
2025-07-15 15:57:20.347167,239.5915069580078,227.7465362548828
2025-07-15 15:57:20.347667,241.4735870361328,228.6200714111328
2025-07-15 15:57:20.362686,239.22108459472656,229.220703125
2025-07-15 15:57:20.363186,234.0326690673828,229.61737060546875
2025-07-15 15:57:20.363686,228.53785705566406,229.36985778808594
2025-07-15 15:57:20.364186,225.9512939453125,228.53555297851562
2025-07-15 15:57:20.364686,227.49008178710938,228.013671875
2025-07-15 15:57:20.365186,232.4387664794922,227.8905029296875
2025-07-15 15:57:20.365686,238.23446655273438,227.90809631347656
2025-07-15 15:57:20.366186,241.56216430664062,228.2767791748047
2025-07-15 15:57:20.363816,240.84844970703125,229.2884979248047
2025-07-15 15:57:20.364316,236.24044799804688,229.70362854003906
2025-07-15 15:57:20.364816,230.1707000732422,229.68026733398438
2025-07-15 15:57:20.365316,226.40940856933594,229.37158203125
2025-07-15 15:57:20.365816,226.5167236328125,228.40948486328125
2025-07-15 15:57:20.366316,230.56015014648438,228.1157989501953
2025-07-15 15:57:20.366816,236.5286407470703,228.22427368164062
2025-07-15 15:57:20.367316,240.93182373046875,228.46458435058594
2025-07-15 15:57:20.384341,241.50965881347656,228.80816650390625
2025-07-15 15:57:20.384841,238.1309051513672,229.28878784179688
2025-07-15 15:57:20.385341,232.3741455078125,229.89259338378906
2025-07-15 15:57:20.385841,227.24342346191406,229.34129333496094
2025-07-15 15:57:20.386341,225.67694091796875,228.61863708496094
2025-07-15 15:57:20.386841,228.59353637695312,228.3365020751953
2025-07-15 15:57:20.387341,234.29229736328125,227.60546875
